SpectraSuite Datei
++++++++++++++++++++++++++++++++++++
Datum: Tue Dec 10 14:58:23 CET 2019
Benutzer: Lichtquellen1
Dark-Spektrum vorhanden: Ja
Referenz-Spektrum vorhanden: Nein
Zahl der probierten Teilspektren: 1
Spektrometer: USB4F05832
Integrationszeit (usec): 100000 (USB4F05832)
Spektren Durchschnitt berechnet: 10 (USB4F05832)
Boxcar Glättung: 0 (USB4F05832)
Dunkelstromkorrektur: Nein (USB4F05832)
Puls/Lampe aktiviert: Nein (USB4F05832)
Correct for Detector Non-linearity: Nein (USB4F05832)
Streulichtkorrektur: Nein (USB4F05832)
Anzahl Pixel in verarbeitetem Spektrum: 3648
>>>>>Begin Processed Spectral Data<<<<<
177,54	14,54
177,75	14,54
177,97	14,54
178,19	0,41
178,41	22,73
178,63	46,28
178,85	6,96
179,07	24,17
179,29	24,99
179,51	12,49
179,73	51,61
179,95	2,25
180,17	9,63
180,39	7,99
180,61	25,80
180,83	37,27
181,05	30,31
181,27	33,59
181,49	42,60
181,71	20,89
181,92	24,78
182,14	53,04
182,36	23,76
182,58	23,96
182,80	-15,97
183,02	54,68
183,24	25,60
183,46	22,12
183,68	10,24
183,90	32,36
184,12	-4,92
184,34	16,59
184,56	40,75
184,78	29,70
185,00	25,60
185,21	-3,69
185,43	9,22
185,65	35,23
185,87	25,60
186,09	22,53
186,31	23,55
186,53	20,89
186,75	40,96
186,97	32,77
187,19	3,69
187,41	-10,85
187,63	48,13
187,84	21,50
188,06	38,91
188,28	14,13
188,50	42,80
188,72	35,84
188,94	18,43
189,16	39,53
189,38	33,59
189,60	20,68
189,82	20,89
190,03	27,44
190,25	30,72
190,47	32,36
190,69	11,47
190,91	47,51
191,13	65,94
191,35	42,39
191,57	26,83
191,79	15,56
192,01	23,96
192,22	35,63
192,44	27,24
192,66	15,56
192,88	46,08
193,10	34,20
193,32	36,86
193,54	2,66
193,76	17,41
193,98	1,23
194,19	22,12
194,41	23,76
194,63	3,28
194,85	13,52
195,07	8,19
195,29	18,84
195,51	53,86
195,73	40,14
195,94	28,06
196,16	12,90
196,38	0,00
196,60	22,94
196,82	35,23
197,04	16,18
197,26	30,31
197,48	22,32
197,69	34,20
197,91	27,65
198,13	19,66
198,35	35,43
198,57	0,82
198,79	32,56
199,01	13,31
199,22	44,65
199,44	33,59
199,66	15,77
199,88	9,22
200,10	26,62
200,32	54,68
200,54	-4,51
200,75	21,50
200,97	23,55
201,19	40,14
201,41	31,13
201,63	27,65
201,85	31,74
202,06	15,56
202,28	9,63
202,50	-18,84
202,72	23,35
202,94	5,53
203,16	-11,06
203,38	33,18
203,59	-4,30
203,81	35,23
204,03	20,27
204,25	23,35
204,47	56,73
204,69	43,42
204,90	20,89
205,12	7,58
205,34	27,44
205,56	29,70
205,78	2,05
206,00	36,86
206,21	30,72
206,43	22,94
206,65	5,32
206,87	26,42
207,09	13,52
207,30	46,49
207,52	15,97
207,74	34,82
207,96	44,44
208,18	15,56
208,40	13,52
208,61	47,31
208,83	57,75
209,05	43,42
209,27	43,62
209,49	55,30
209,70	30,51
209,92	22,94
210,14	23,96
210,36	27,65
210,58	38,50
210,79	27,85
211,01	40,14
211,23	49,56
211,45	5,73
211,67	-18,64
211,88	8,40
212,10	42,39
212,32	30,72
212,54	23,14
212,76	11,67
212,97	26,42
213,19	49,97
213,41	29,90
213,63	14,75
213,85	9,22
214,06	18,23
214,28	46,90
214,50	18,64
214,72	3,69
214,94	14,13
215,15	61,23
215,37	41,78
215,59	28,06
215,81	24,58
216,02	4,92
216,24	29,29
216,46	-4,51
216,68	40,96
216,90	39,12
217,11	17,41
217,33	33,59
217,55	14,34
217,77	34,20
217,98	9,42
218,20	36,66
218,42	31,74
218,64	33,79
218,85	27,65
219,07	23,35
219,29	50,38
219,51	42,60
219,73	18,84
219,94	-7,37
220,16	56,93
220,38	38,71
220,60	0,82
220,81	9,83
221,03	21,09
221,25	11,67
221,47	43,01
221,68	12,29
221,90	30,92
222,12	47,10
222,34	61,44
222,55	20,48
222,77	14,34
222,99	14,75
223,21	-7,17
223,42	17,00
223,64	13,11
223,86	33,79
224,08	58,98
224,29	40,96
224,51	0,20
224,73	43,62
224,94	36,45
225,16	31,33
225,38	18,02
225,60	14,13
225,81	21,71
226,03	-3,89
226,25	5,32
226,47	15,77
226,68	36,25
226,90	20,68
227,12	45,87
227,33	21,50
227,55	44,44
227,77	34,61
227,99	3,89
228,20	56,11
228,42	47,92
228,64	19,46
228,86	0,82
229,07	44,24
229,29	17,61
229,51	12,90
229,72	-16,18
229,94	19,66
230,16	34,82
230,38	5,12
230,59	33,38
230,81	1,64
231,03	29,90
231,24	-14,54
231,46	9,42
231,68	33,38
231,89	-4,30
232,11	33,18
232,33	1,02
232,55	32,15
232,76	35,63
232,98	34,00
233,20	25,39
233,41	1,23
233,63	31,33
233,85	40,55
234,06	8,19
234,28	45,06
234,50	24,99
234,71	16,59
234,93	38,30
235,15	24,99
235,37	5,73
235,58	-7,37
235,80	23,55
236,02	40,34
236,23	30,51
236,45	12,49
236,67	25,19
236,88	3,28
237,10	7,17
237,32	31,95
237,53	24,99
237,75	10,24
237,97	25,60
238,18	38,09
238,40	10,65
238,62	44,44
238,83	22,94
239,05	22,12
239,27	23,76
239,48	19,87
239,70	25,60
239,92	61,64
240,13	38,91
240,35	27,44
240,57	20,48
240,78	15,97
241,00	17,20
241,22	40,14
241,43	31,95
241,65	0,20
241,87	31,74
242,08	32,15
242,30	30,72
242,52	29,08
242,73	82,33
242,95	44,44
243,16	24,99
243,38	-4,51
243,60	55,09
243,81	54,48
244,03	34,82
244,25	39,53
244,46	22,53
244,68	36,45
244,90	15,97
245,11	-1,43
245,33	28,67
245,55	42,60
245,76	31,54
245,98	2,25
246,19	57,14
246,41	1,64
246,63	56,93
246,84	-17,20
247,06	21,09
247,28	41,37
247,49	27,44
247,71	52,22
247,92	21,50
248,14	35,23
248,36	64,92
248,57	43,83
248,79	16,38
249,01	43,62
249,22	31,54
249,44	3,48
249,65	43,83
249,87	35,43
250,09	17,41
250,30	28,06
250,52	20,27
250,73	42,80
250,95	41,57
251,17	23,35
251,38	12,08
251,60	-1,02
251,81	39,53
252,03	23,14
252,25	21,30
252,46	34,61
252,68	43,62
252,89	23,96
253,11	32,56
253,33	41,57
253,54	29,90
253,76	23,14
253,97	21,30
254,19	29,49
254,41	4,30
254,62	36,86
254,84	33,59
255,05	35,63
255,27	4,51
255,49	31,33
255,70	24,17
255,92	-7,37
256,13	-3,89
256,35	37,07
256,56	21,30
256,78	7,78
257,00	8,60
257,21	17,00
257,43	48,95
257,64	39,53
257,86	26,21
258,08	31,74
258,29	18,23
258,51	20,27
258,72	16,38
258,94	-13,11
259,15	42,39
259,37	26,01
259,59	21,50
259,80	28,26
260,02	23,76
260,23	29,29
260,45	23,76
260,66	-1,23
260,88	57,14
261,09	38,09
261,31	49,36
261,53	68,20
261,74	25,60
261,96	18,43
262,17	3,28
262,39	51,61
262,60	36,45
262,82	29,49
263,03	31,33
263,25	26,62
263,46	23,14
263,68	-5,32
263,90	46,69
264,11	14,75
264,33	20,48
264,54	35,63
264,76	35,02
264,97	40,34
265,19	20,48
265,40	42,39
265,62	16,59
265,83	20,07
266,05	21,30
266,26	43,42
266,48	21,09
266,70	36,66
266,91	24,99
267,13	61,44
267,34	36,45
267,56	2,25
267,77	33,79
267,99	2,46
268,20	-19,25
268,42	19,46
268,63	36,66
268,85	33,18
269,06	37,68
269,28	5,12
269,49	21,50
269,71	20,07
269,92	0,61
270,14	19,66
270,35	2,66
270,57	14,13
270,78	34,61
271,00	34,61
271,21	39,94
271,43	23,55
271,64	8,60
271,86	48,54
272,07	41,98
272,29	25,19
272,50	30,51
272,72	17,82
272,93	30,31
273,15	43,62
273,36	12,90
273,58	7,17
273,79	46,08
274,01	63,28
274,22	5,53
274,44	31,33
274,65	-1,23
274,87	5,53
275,08	26,01
275,30	18,84
275,51	46,08
275,73	20,48
275,94	9,22
276,16	24,78
276,37	20,48
276,59	54,07
276,80	52,43
277,02	37,07
277,23	13,52
277,45	16,59
277,66	7,78
277,88	0,20
278,09	58,98
278,30	-3,69
278,52	27,44
278,73	31,74
278,95	18,43
279,16	-2,46
279,38	19,87
279,59	50,99
279,81	7,37
280,02	60,01
280,24	35,43
280,45	32,97
280,67	22,53
280,88	44,85
281,09	3,48
281,31	38,09
281,52	9,83
281,74	50,18
281,95	47,92
282,17	38,91
282,38	36,25
282,60	10,65
282,81	28,06
283,02	2,05
283,24	-7,37
283,45	41,78
283,67	9,83
283,88	31,33
284,10	37,89
284,31	32,36
284,53	22,94
284,74	7,78
284,95	14,95
285,17	-0,41
285,38	-6,35
285,60	32,36
285,81	21,91
286,03	0,20
286,24	16,18
286,45	32,15
286,67	33,59
286,88	62,05
287,10	2,46
287,31	33,38
287,53	19,25
287,74	20,07
287,95	19,87
288,17	33,38
288,38	20,48
288,60	37,89
288,81	18,23
289,02	23,96
289,24	3,89
289,45	48,74
289,67	30,72
289,88	5,32
290,10	12,29
290,31	19,46
290,52	12,08
290,74	42,60
290,95	32,36
291,17	23,96
291,38	10,24
291,59	24,58
291,81	36,25
292,02	20,89
292,24	28,06
292,45	-27,44
292,66	9,42
292,88	34,61
293,09	70,45
293,31	12,29
293,52	41,98
293,73	17,20
293,95	42,19
294,16	29,29
294,37	31,54
294,59	32,77
294,80	48,13
295,02	29,70
295,23	11,88
295,44	2,46
295,66	30,11
295,87	26,83
296,09	39,73
296,30	47,10
296,51	37,68
296,73	4,92
296,94	32,15
297,15	6,14
297,37	41,78
297,58	35,43
297,79	57,34
298,01	28,26
298,22	-5,53
298,44	34,82
298,65	47,31
298,86	-7,17
299,08	19,46
299,29	27,03
299,50	14,75
299,72	37,89
299,93	46,69
300,14	18,84
300,36	-5,32
300,57	43,83
300,79	23,35
301,00	-1,64
301,21	1,43
301,43	17,82
301,64	25,60
301,85	29,08
302,07	23,35
302,28	27,03
302,49	25,39
302,71	-4,10
302,92	56,52
303,13	29,70
303,35	-2,05
303,56	43,83
303,77	49,77
303,99	25,80
304,20	36,04
304,41	22,32
304,63	56,52
304,84	27,85
305,05	55,09
305,27	15,97
305,48	29,70
305,69	62,67
305,91	11,88
306,12	9,42
306,33	5,12
306,55	56,93
306,76	25,80
306,97	8,60
307,19	22,12
307,40	6,96
307,61	46,90
307,82	61,64
308,04	21,91
308,25	24,37
308,46	13,31
308,68	32,77
308,89	48,54
309,10	5,73
309,32	15,56
309,53	42,80
309,74	22,73
309,96	19,46
310,17	17,20
310,38	44,65
310,59	25,60
310,81	22,12
311,02	19,87
311,23	18,02
311,45	-0,41
311,66	33,59
311,87	-19,87
312,09	37,89
312,30	31,74
312,51	39,32
312,72	26,42
312,94	14,95
313,15	32,15
313,36	-1,43
313,58	6,76
313,79	41,78
314,00	29,08
314,21	50,99
314,43	52,43
314,64	40,14
314,85	29,49
315,06	42,39
315,28	75,77
315,49	91,95
315,70	70,86
315,92	99,12
316,13	97,69
316,34	84,17
316,55	56,93
316,77	62,46
316,98	91,34
317,19	64,31
317,40	80,28
317,62	17,82
317,83	94,21
318,04	55,09
318,25	67,79
318,47	47,10
318,68	37,07
318,89	45,26
319,11	30,31
319,32	30,92
319,53	34,00
319,74	61,44
319,96	30,11
320,17	60,82
320,38	41,37
320,59	36,66
320,81	-3,69
321,02	30,92
321,23	5,53
321,44	55,70
321,65	10,65
321,87	-7,78
322,08	30,31
322,29	36,66
322,50	17,61
322,72	43,62
322,93	28,26
323,14	41,16
323,35	10,65
323,57	39,94
323,78	35,23
323,99	38,71
324,20	34,82
324,41	-2,87
324,63	49,36
324,84	28,06
325,05	-3,28
325,26	60,21
325,48	25,19
325,69	10,44
325,90	-13,31
326,11	24,78
326,32	38,30
326,54	36,86
326,75	22,73
326,96	32,36
327,17	44,03
327,39	33,38
327,60	49,36
327,81	51,81
328,02	37,27
328,23	33,38
328,45	22,32
328,66	61,44
328,87	76,80
329,08	35,84
329,29	57,96
329,51	-10,24
329,72	-6,35
329,93	13,93
330,14	74,34
330,35	34,61
330,56	40,75
330,78	53,86
330,99	29,90
331,20	61,64
331,41	32,97
331,62	43,01
331,84	35,23
332,05	16,59
332,26	24,58
332,47	57,55
332,68	35,23
332,90	27,65
333,11	11,88
333,32	45,87
333,53	20,27
333,74	-25,19
333,95	46,69
334,17	40,14
334,38	28,67
334,59	48,13
334,80	19,05
335,01	50,99
335,22	-5,12
335,44	49,36
335,65	26,42
335,86	60,62
336,07	37,68
336,28	84,79
336,49	63,49
336,71	84,99
336,92	94,62
337,13	78,85
337,34	92,77
337,55	63,49
337,76	71,68
337,97	36,45
338,19	59,60
338,40	58,16
338,61	81,10
338,82	76,39
339,03	99,53
339,24	64,31
339,45	85,81
339,67	39,73
339,88	41,98
340,09	52,84
340,30	50,58
340,51	74,34
340,72	36,66
340,93	58,98
341,15	63,49
341,36	95,23
341,57	53,66
341,78	46,69
341,99	37,68
342,20	78,44
342,41	98,10
342,62	78,85
342,84	45,67
343,05	45,87
343,26	47,31
343,47	60,62
343,68	82,94
343,89	38,71
344,10	47,92
344,31	64,31
344,53	40,75
344,74	46,49
344,95	50,38
345,16	54,89
345,37	66,15
345,58	111,00
345,79	67,99
346,00	66,56
346,21	79,67
346,42	54,48
346,64	76,59
346,85	75,77
347,06	82,33
347,27	76,80
347,48	76,18
347,69	68,20
347,90	90,11
348,11	91,34
348,32	81,51
348,53	79,46
348,75	91,34
348,96	82,12
349,17	96,46
349,38	94,62
349,59	76,59
349,80	78,64
350,01	96,87
350,22	75,37
350,43	68,20
350,64	61,64
350,85	72,91
351,06	88,47
351,28	64,92
351,49	72,50
351,70	66,56
351,91	69,84
352,12	108,13
352,33	52,02
352,54	70,86
352,75	101,17
352,96	40,14
353,17	73,93
353,38	123,90
353,59	99,53
353,80	120,83
354,01	92,36
354,22	105,27
354,44	60,82
354,65	108,54
354,86	56,93
355,07	111,82
355,28	80,28
355,49	75,37
355,70	92,36
355,91	83,56
356,12	73,93
356,33	65,13
356,54	109,16
356,75	79,46
356,96	96,05
357,17	98,10
357,38	126,77
357,59	102,40
357,80	121,85
358,01	107,72
358,22	76,18
358,43	109,57
358,64	108,13
358,85	102,19
359,07	103,83
359,28	130,05
359,49	92,36
359,70	97,69
359,91	129,02
360,12	103,01
360,33	92,36
360,54	99,94
360,75	122,88
360,96	125,13
361,17	77,21
361,38	94,62
361,59	107,31
361,80	88,27
362,01	120,83
362,22	92,16
362,43	123,90
362,64	105,68
362,85	109,57
363,06	126,97
363,27	126,77
363,48	149,71
363,69	104,86
363,90	90,52
364,11	107,31
364,32	151,34
364,53	62,26
364,74	85,20
364,95	127,59
365,16	134,55
365,37	134,14
365,58	119,19
365,79	159,95
366,00	184,73
366,21	275,25
366,42	609,68
366,63	916,67
366,84	1449,55
367,05	2000,25
367,26	2493,61
367,47	2793,84
367,68	2810,63
367,89	2768,65
368,10	2464,94
368,31	2196,86
368,52	2000,25
368,73	1936,76
368,94	1726,23
369,15	1522,46
369,36	1409,62
369,57	1288,58
369,78	1168,16
369,99	961,73
370,20	861,17
370,40	726,00
370,61	624,63
370,82	458,13
371,03	384,61
371,24	274,43
371,45	263,57
371,66	240,84
371,87	181,86
372,08	168,34
372,29	88,06
372,50	105,27
372,71	109,98
372,92	109,77
373,13	98,30
373,34	92,36
373,55	122,67
373,76	121,65
373,97	97,48
374,18	114,69
374,39	108,75
374,60	130,66
374,81	89,29
375,01	105,06
375,22	72,91
375,43	111,41
375,64	95,23
375,85	102,19
376,06	123,90
376,27	84,58
376,48	71,68
376,69	98,30
376,90	105,06
377,11	100,96
377,32	69,43
377,53	79,26
377,74	107,72
377,94	69,84
378,15	116,73
378,36	102,60
378,57	89,70
378,78	86,42
378,99	92,98
379,20	114,89
379,41	126,77
379,62	58,98
379,83	105,47
380,04	101,78
380,25	147,45
380,45	128,61
380,66	147,25
380,87	105,06
381,08	94,82
381,29	146,02
381,50	154,42
381,71	129,84
381,92	140,70
382,13	167,93
382,34	137,83
382,55	123,49
382,75	153,39
382,96	127,79
383,17	125,34
383,38	154,01
383,59	159,54
383,80	134,35
384,01	162,40
384,22	161,79
384,43	149,91
384,63	139,88
384,84	114,89
385,05	134,76
385,26	128,00
385,47	112,84
385,68	128,41
385,89	122,47
386,10	111,20
386,30	108,54
386,51	112,02
386,72	104,45
386,93	72,50
387,14	105,27
387,35	121,65
387,56	81,10
387,77	81,71
387,97	88,27
388,18	105,47
388,39	98,30
388,60	100,15
388,81	100,15
389,02	116,73
389,23	60,82
389,43	92,16
389,64	94,00
389,85	126,56
390,06	82,33
390,27	77,62
390,48	87,24
390,69	76,39
390,89	106,90
391,10	104,24
391,31	93,80
391,52	91,34
391,73	89,91
391,94	62,87
392,14	92,77
392,35	101,78
392,56	98,30
392,77	55,91
392,98	67,58
393,19	79,67
393,39	81,71
393,60	89,91
393,81	78,23
394,02	78,44
394,23	68,61
394,44	96,87
394,64	83,35
394,85	88,27
395,06	73,73
395,27	45,06
395,48	50,79
395,69	70,65
395,89	69,22
396,10	72,50
396,31	40,75
396,52	53,04
396,73	63,49
396,93	55,30
397,14	84,99
397,35	82,12
397,56	57,96
397,77	47,72
397,97	58,37
398,18	80,49
398,39	78,44
398,60	84,79
398,81	67,17
399,01	46,08
399,22	80,69
399,43	77,62
399,64	84,99
399,85	97,69
400,05	78,85
400,26	86,22
400,47	70,65
400,68	51,81
400,89	71,06
401,09	72,50
401,30	82,74
401,51	92,98
401,72	74,55
401,93	105,06
402,13	68,81
402,34	85,61
402,55	105,47
402,76	92,57
402,96	82,53
403,17	91,95
403,38	81,71
403,59	67,79
403,80	79,67
404,00	83,15
404,21	75,77
404,42	75,37
404,63	60,01
404,83	103,01
405,04	104,45
405,25	188,62
405,46	458,54
405,66	923,63
405,87	1683,23
406,08	2621,40
406,29	3686,75
406,49	4582,94
406,70	4924,14
406,91	4707,26
407,12	4606,09
407,32	3767,65
407,53	3388,98
407,74	2745,10
407,95	2334,48
408,15	2130,71
408,36	1868,16
408,57	1747,53
408,78	1774,16
408,98	1691,42
409,19	1583,08
409,40	1563,83
409,61	1391,19
409,81	1253,15
410,02	1105,49
410,23	842,94
410,44	710,24
410,64	515,68
410,85	416,15
411,06	337,10
411,26	318,87
411,47	319,28
411,68	288,35
411,89	241,05
412,09	239,20
412,30	264,39
412,51	207,46
412,72	193,12
412,92	165,07
413,13	148,68
413,34	165,89
413,54	155,85
413,75	132,30
413,96	113,05
414,17	110,18
414,37	109,57
414,58	92,16
414,79	116,12
414,99	130,46
415,20	114,07
415,41	136,60
415,61	133,73
415,82	100,96
416,03	150,12
416,24	123,29
416,44	125,13
416,65	136,39
416,86	118,78
417,06	123,90
417,27	118,17
417,48	141,11
417,68	179,40
417,89	169,57
418,10	158,10
418,30	130,87
418,51	110,18
418,72	130,87
418,92	115,10
419,13	160,56
419,34	140,29
419,55	127,18
419,75	151,96
419,96	127,59
420,17	91,95
420,37	144,59
420,58	119,19
420,79	117,35
420,99	134,14
421,20	118,78
421,41	115,92
421,61	111,20
421,82	126,56
422,03	130,87
422,23	128,41
422,44	128,61
422,65	122,06
422,85	129,23
423,06	111,20
423,26	152,57
423,47	135,99
423,68	116,94
423,88	109,57
424,09	122,88
424,30	139,47
424,50	106,70
424,71	116,12
424,92	110,18
425,12	115,92
425,33	68,81
425,54	120,01
425,74	128,61
425,95	96,87
426,15	133,53
426,36	104,45
426,57	122,47
426,77	121,03
426,98	106,49
427,19	104,86
427,39	131,48
427,60	108,13
427,81	108,13
428,01	139,47
428,22	118,17
428,42	97,28
428,63	122,47
428,84	94,00
429,04	141,51
429,25	100,76
429,45	123,70
429,66	139,88
429,87	132,30
430,07	144,59
430,28	106,08
430,49	102,19
430,69	123,29
430,90	132,30
431,10	137,42
431,31	111,41
431,52	108,95
431,72	101,17
431,93	108,75
432,13	134,76
432,34	146,43
432,55	130,87
432,75	131,68
432,96	137,21
433,16	175,92
433,37	145,61
433,58	164,86
433,78	123,90
433,99	159,95
434,19	179,20
434,40	157,90
434,60	168,75
434,81	174,69
435,02	201,52
435,22	226,30
435,43	241,87
435,63	284,05
435,84	335,87
436,05	402,43
436,25	674,81
436,46	1730,94
436,66	3431,78
436,87	5988,47
437,07	8459,54
437,28	11508,56
437,48	14034,12
437,69	14016,09
437,90	13437,34
438,10	11929,01
438,31	10093,82
438,51	8944,91
438,72	7304,90
438,92	6412,60
439,13	5820,12
439,34	5329,43
439,54	4980,05
439,75	4503,69
439,95	4174,58
440,16	3746,96
440,36	3325,70
440,57	2681,82
440,77	2320,96
440,98	1785,42
441,18	1272,40
441,39	857,89
441,60	617,87
441,80	423,72
442,01	301,67
442,21	287,33
442,42	185,34
442,62	205,62
442,83	189,64
443,03	173,46
443,24	172,64
443,44	178,79
443,65	162,81
443,85	182,68
444,06	161,79
444,26	158,92
444,47	135,17
444,67	151,75
444,88	152,16
445,09	141,72
445,29	165,89
445,50	123,49
445,70	163,63
445,91	118,17
446,11	125,13
446,32	146,22
446,52	98,10
446,73	160,15
446,93	116,94
447,14	111,41
447,34	144,59
447,55	139,67
447,75	157,28
447,96	125,54
448,16	121,85
448,37	129,64
448,57	106,49
448,78	131,48
448,98	133,12
449,19	131,07
449,39	126,97
449,60	111,61
449,80	151,14
450,01	156,67
450,21	131,27
450,42	128,20
450,62	152,98
450,83	121,24
451,03	142,74
451,23	108,75
451,44	131,48
451,64	153,60
451,85	167,32
452,05	107,31
452,26	130,66
452,46	137,21
452,67	146,02
452,87	132,71
453,08	134,96
453,28	119,60
453,49	149,91
453,69	147,86
453,90	107,93
454,10	140,70
454,31	106,29
454,51	128,00
454,71	104,86
454,92	128,41
455,12	139,06
455,33	171,82
455,53	132,30
455,74	99,74
455,94	131,27
456,15	138,24
456,35	132,09
456,55	122,06
456,76	159,95
456,96	114,89
457,17	129,43
457,37	152,98
457,58	138,24
457,78	133,73
457,99	157,28
458,19	146,84
458,39	176,13
458,60	134,76
458,80	139,26
459,01	151,34
459,21	126,77
459,42	138,65
459,62	133,94
459,82	154,83
460,03	163,84
460,23	147,66
460,44	138,24
460,64	150,12
460,85	166,30
461,05	164,86
461,25	139,67
461,46	143,36
461,66	167,11
461,87	151,75
462,07	155,65
462,27	156,67
462,48	168,34
462,68	115,92
462,89	119,40
463,09	117,76
463,29	177,97
463,50	155,24
463,70	165,07
463,91	128,41
464,11	146,84
464,31	121,44
464,52	151,75
464,72	158,92
464,93	155,03
465,13	165,07
465,33	171,01
465,54	112,64
465,74	144,59
465,95	161,18
466,15	157,90
466,35	145,61
466,56	193,12
466,76	175,92
466,96	185,96
467,17	154,62
467,37	154,21
467,58	145,61
467,78	194,76
467,98	168,55
468,19	150,32
468,39	197,01
468,59	200,29
468,80	213,19
469,00	182,68
469,21	184,11
469,41	196,20
469,61	186,77
469,82	183,50
470,02	176,74
470,22	193,94
470,43	171,01
470,63	169,57
470,83	183,91
471,04	167,32
471,24	184,73
471,45	158,10
471,65	215,45
471,85	155,24
472,06	193,74
472,26	175,92
472,46	152,78
472,67	201,32
472,87	187,18
473,07	207,66
473,28	192,10
473,48	216,47
473,68	234,49
473,89	186,98
474,09	241,05
474,29	201,72
474,50	197,63
474,70	167,52
474,90	236,34
475,11	241,66
475,31	231,22
475,51	214,63
475,72	224,25
475,92	229,58
476,12	184,11
476,33	241,05
476,53	212,17
476,73	195,99
476,93	214,22
477,14	187,80
477,34	237,97
477,54	206,64
477,75	259,68
477,95	219,34
478,15	219,95
478,36	231,22
478,56	224,25
478,76	252,10
478,97	265,21
479,17	255,18
479,37	299,62
479,57	241,87
479,78	262,96
479,98	252,72
480,18	276,89
480,39	335,05
480,59	274,84
480,79	327,67
480,99	321,74
481,20	368,43
481,40	404,47
481,60	419,01
481,81	441,75
482,01	440,72
482,21	498,68
482,41	527,97
482,62	560,94
482,82	623,40
483,02	679,52
483,23	724,37
483,43	795,64
483,63	845,81
483,83	948,41
484,04	1017,23
484,24	1171,23
484,44	1275,88
484,64	1336,30
484,85	1556,05
485,05	1650,46
485,25	1784,40
485,45	1975,88
485,66	2149,14
485,86	2284,30
486,06	2508,97
486,26	2701,89
486,47	2906,07
486,67	3140,76
486,87	3351,09
487,07	3563,67
487,28	3800,01
487,48	3950,94
487,68	4326,54
487,88	4421,15
488,09	4531,34
488,29	4678,18
488,49	4826,45
488,69	4850,82
488,90	4870,89
489,10	4852,46
489,30	4864,74
489,50	4855,12
489,71	4810,27
489,91	4783,24
490,11	4691,69
490,31	4687,60
490,52	4533,59
490,72	4426,07
490,92	4415,01
491,12	4280,05
491,32	4157,58
491,53	4148,16
491,73	4007,47
491,93	3969,78
492,13	3881,52
492,33	3783,42
492,54	3746,55
492,74	3710,92
492,94	3745,12
493,14	3650,50
493,35	3507,76
493,55	3420,72
493,75	3331,84
493,95	3234,15
494,15	3186,23
494,36	3146,50
494,56	3020,55
494,76	2965,66
494,96	2929,82
495,16	2844,63
495,37	2778,07
495,57	2708,64
495,77	2669,53
495,97	2611,36
496,17	2549,72
496,37	2519,82
496,58	2422,95
496,78	2343,49
496,98	2344,31
497,18	2256,45
497,38	2205,87
497,59	2129,68
497,79	2130,09
497,99	2045,51
498,19	2034,25
498,39	1952,94
498,59	1906,25
498,80	1821,05
499,00	1780,71
499,20	1738,32
499,40	1682,00
499,60	1653,53
499,80	1624,45
500,01	1529,22
500,21	1463,68
500,41	1452,21
500,61	1434,19
500,81	1387,29
501,01	1340,19
501,22	1252,54
501,42	1209,53
501,62	1198,47
501,82	1146,04
502,02	1109,59
502,22	1004,32
502,42	1036,68
502,63	1025,42
502,83	916,88
503,03	943,70
503,23	844,38
503,43	816,12
503,63	783,35
503,83	800,35
504,04	734,40
504,24	721,29
504,44	682,18
504,64	699,79
504,84	603,13
505,04	637,53
505,24	564,83
505,44	611,52
505,65	558,48
505,85	563,40
506,05	571,59
506,25	533,09
506,45	478,41
506,65	486,39
506,85	448,30
507,05	439,49
507,26	439,90
507,46	422,29
507,66	391,57
507,86	391,16
508,06	412,26
508,26	387,27
508,46	374,37
508,66	367,61
508,86	344,88
509,06	375,19
509,27	378,46
509,47	365,15
509,67	365,15
509,87	340,37
510,07	341,19
510,27	367,00
510,47	368,43
510,67	335,87
510,87	359,21
511,07	329,31
511,28	333,00
511,48	339,55
511,68	370,07
511,88	333,41
512,08	320,30
512,28	315,18
512,48	332,18
512,68	332,79
512,88	333,20
513,08	338,32
513,28	314,57
513,48	322,56
513,68	294,70
513,89	292,04
514,09	295,32
514,29	283,44
514,49	281,19
514,69	314,77
514,89	310,27
515,09	297,16
515,29	281,39
515,49	304,53
515,69	296,14
515,89	289,99
516,09	288,97
516,29	284,67
516,49	242,68
516,69	302,89
516,89	308,63
517,09	298,80
517,29	276,89
517,50	278,32
517,70	247,19
517,90	236,13
518,10	258,45
518,30	227,12
518,50	260,09
518,70	276,48
518,90	255,38
519,10	257,84
519,30	239,00
519,50	296,96
519,70	254,56
519,90	248,62
520,10	256,61
520,30	297,77
520,50	268,69
520,70	275,45
520,90	258,86
521,10	261,73
521,30	279,96
521,50	238,38
521,70	281,60
521,90	258,04
522,10	266,85
522,30	241,46
522,50	278,32
522,70	280,16
522,90	276,07
523,10	257,22
523,30	282,01
523,50	285,90
523,70	278,11
523,90	279,34
524,10	274,63
524,30	244,73
524,50	295,11
524,70	303,10
524,90	322,15
525,10	293,47
525,30	283,03
525,50	311,50
525,70	284,87
525,90	271,36
526,10	281,60
526,30	300,85
526,50	323,17
526,70	330,54
526,90	280,57
527,10	299,21
527,30	293,27
527,50	290,81
527,70	322,35
527,90	279,14
528,10	313,75
528,30	314,77
528,50	365,97
528,70	341,81
528,90	330,13
529,10	332,39
529,30	348,36
529,50	364,95
529,70	343,85
529,90	343,65
530,10	372,12
530,29	358,80
530,49	371,71
530,69	384,40
530,89	383,17
531,09	375,80
531,29	384,20
531,49	413,08
531,69	412,67
531,89	378,46
532,09	410,00
532,29	403,45
532,49	399,56
532,69	432,94
532,89	477,18
533,09	522,23
533,29	553,77
533,49	600,05
533,68	646,95
533,88	749,56
534,08	877,96
534,28	919,13
534,48	983,03
534,68	998,79
534,88	1027,06
535,08	1002,69
535,28	965,62
535,48	966,03
535,68	942,68
535,88	987,12
536,08	967,46
536,27	1028,90
536,47	1028,29
536,67	1103,24
536,87	1137,44
537,07	1193,76
537,27	1328,52
537,47	1421,29
537,67	1547,65
537,87	1689,57
538,07	1907,48
538,27	2070,70
538,46	2320,14
538,66	2570,41
538,86	2769,88
539,06	2985,12
539,26	3233,33
539,46	3411,71
539,66	3574,73
539,86	3855,92
540,06	4236,63
540,25	4557,75
540,45	5058,07
540,65	5784,69
540,85	6519,50
541,05	7330,09
541,25	8385,61
541,45	9673,99
541,65	11139,72
541,85	12967,33
542,04	14874,81
542,24	16842,50
542,44	18838,24
542,64	20389,78
542,84	21294,16
543,04	21946,85
543,24	21853,67
543,43	21827,46
543,63	21388,99
543,83	20869,01
544,03	20665,64
544,23	20498,32
544,43	20513,68
544,63	20366,23
544,82	20738,55
545,02	20390,40
545,22	20618,54
545,42	20215,91
545,62	20694,93
545,82	20573,48
546,02	21537,87
546,21	23609,19
546,41	26216,66
546,61	28574,69
546,81	31500,83
547,01	33141,25
547,21	33959,01
547,40	32257,97
547,60	30568,80
547,80	28021,13
548,00	26237,96
548,20	24262,70
548,40	22759,90
548,59	21947,47
548,79	20921,02
548,99	20086,68
549,19	19211,79
549,39	18546,40
549,59	17607,41
549,78	16555,57
549,98	15738,84
550,18	14779,17
550,38	13882,36
550,58	12937,84
550,77	11984,71
550,97	11082,58
551,17	10212,81
551,37	9683,82
551,57	9081,92
551,76	8436,61
551,96	7968,44
552,16	7502,94
552,36	7166,66
552,56	6653,85
552,75	6327,40
552,95	5897,13
553,15	5665,91
553,35	5341,72
553,55	4955,67
553,74	4723,23
553,94	4426,07
554,14	4152,87
554,34	3956,47
554,54	3758,43
554,73	3596,23
554,93	3346,59
555,13	3166,57
555,33	2954,60
555,53	2805,92
555,72	2596,21
555,92	2429,71
556,12	2306,83
556,32	2167,57
556,51	2045,10
556,71	1928,78
556,91	1783,37
557,11	1718,86
557,30	1661,72
557,50	1583,28
557,70	1469,62
557,90	1396,71
558,10	1350,02
558,29	1236,15
558,49	1227,14
558,69	1151,78
558,89	1098,53
559,08	1093,82
559,28	1023,98
559,48	994,08
559,68	986,30
559,87	965,62
560,07	878,37
560,27	868,75
560,47	872,03
560,66	830,66
560,86	812,43
561,06	804,65
561,25	777,82
561,45	780,69
561,65	758,57
561,85	690,37
562,04	677,88
562,24	674,81
562,44	701,84
562,64	656,58
562,83	676,85
563,03	672,14
563,23	631,80
563,42	640,81
563,62	632,41
563,82	620,12
564,02	642,04
564,21	617,67
564,41	579,37
564,61	573,02
564,80	601,28
565,00	610,70
565,20	576,30
565,40	574,46
565,59	564,01
565,79	560,32
565,99	531,04
566,18	532,88
566,38	518,55
566,58	499,09
566,78	488,65
566,97	504,01
567,17	474,31
567,37	517,73
567,56	528,99
567,76	511,17
567,96	495,20
568,15	491,51
568,35	502,78
568,55	487,42
568,74	470,62
568,94	469,19
569,14	493,56
569,33	473,70
569,53	489,46
569,73	482,09
569,92	472,88
570,12	452,81
570,32	500,52
570,52	448,51
570,71	461,00
570,91	441,54
571,11	435,19
571,30	411,03
571,50	427,00
571,70	383,79
571,89	344,67
572,09	373,75
572,28	388,70
572,48	380,51
572,68	377,85
572,87	386,45
573,07	349,59
573,27	346,31
573,46	354,91
573,66	379,90
573,86	404,68
574,05	393,41
574,25	364,54
574,45	354,91
574,64	380,10
574,84	413,28
575,04	370,27
575,23	418,60
575,43	396,49
575,62	409,39
575,82	413,89
576,02	446,46
576,21	456,90
576,41	470,83
576,61	591,25
576,80	857,07
577,00	1320,94
577,19	1845,42
577,39	2363,97
577,59	2821,69
577,78	3200,98
577,98	3299,89
578,18	3112,91
578,37	2936,38
578,57	2611,36
578,76	2404,93
578,96	2447,53
579,16	2736,50
579,35	3046,15
579,55	3475,40
579,74	3844,24
579,94	4073,61
580,14	4187,28
580,33	4075,25
580,53	4026,31
580,72	3933,33
580,92	3932,92
581,12	3877,62
581,31	3863,49
581,51	3810,45
581,70	3637,81
581,90	3505,51
582,10	3472,95
582,29	3455,33
582,49	3451,65
582,68	3576,37
582,88	3694,74
583,07	3811,47
583,27	3939,06
583,47	4017,50
583,66	4074,23
583,86	4144,06
584,05	4145,91
584,25	4231,51
584,44	4281,69
584,64	4272,06
584,84	4221,48
585,03	4215,33
585,23	4217,79
585,42	4162,09
585,62	4152,26
585,81	4082,63
586,01	4102,90
586,20	4061,94
586,40	3997,02
586,60	3897,49
586,79	3981,66
586,99	4126,86
587,18	4449,21
587,38	4871,50
587,57	5370,39
587,77	5890,78
587,96	6304,26
588,16	6511,11
588,35	6623,95
588,55	6393,55
588,75	5985,39
588,94	5588,70
589,14	5174,81
589,33	4764,19
589,53	4418,08
589,72	4113,35
589,92	3994,36
590,11	3819,05
590,31	3675,08
590,50	3603,40
590,70	3401,68
590,89	3391,64
591,09	3288,22
591,28	3188,07
591,48	3183,77
591,67	3115,17
591,87	3131,96
592,06	3140,36
592,26	3160,83
592,45	3321,40
592,65	3482,37
592,84	3764,78
593,04	4049,86
593,23	4430,17
593,43	4887,27
593,62	5175,63
593,82	5374,48
594,01	5496,34
594,21	5430,60
594,40	5273,72
594,60	5002,16
594,79	4748,42
594,99	4370,16
595,18	4183,80
595,38	3882,33
595,57	3728,33
595,77	3518,82
595,96	3353,14
596,16	3207,32
596,35	3066,01
596,55	2981,23
596,74	2860,19
596,94	2749,81
597,13	2634,71
597,33	2511,63
597,52	2442,82
597,72	2378,92
597,91	2290,86
598,11	2292,50
598,30	2236,38
598,50	2304,37
598,69	2328,95
598,88	2441,79
599,08	2560,17
599,27	2767,62
599,47	2956,24
599,66	3144,25
599,86	3349,04
600,05	3497,11
600,25	3613,44
600,44	3622,24
600,64	3636,37
600,83	3574,93
601,02	3452,88
601,22	3340,65
601,41	3186,43
601,61	2991,88
601,80	2873,50
602,00	2752,06
602,19	2605,02
602,38	2445,68
602,58	2319,12
602,77	2233,11
602,97	2074,18
603,16	2040,80
603,36	1848,70
603,55	1865,49
603,74	1713,74
603,94	1695,72
604,13	1664,79
604,33	1637,97
604,52	1572,23
604,72	1580,83
604,91	1505,05
605,10	1530,24
605,30	1525,74
605,49	1538,23
605,69	1565,88
605,88	1601,72
606,07	1614,41
606,27	1583,49
606,46	1685,48
606,66	1670,12
606,85	1727,67
607,04	1811,43
607,24	1870,21
607,43	1938,81
607,63	2030,56
607,82	2137,87
608,01	2272,63
608,21	2343,90
608,40	2537,43
608,60	2700,04
608,79	2931,67
608,98	3172,51
609,18	3563,06
609,37	3830,11
609,57	4223,12
609,76	4762,76
609,95	5494,90
610,15	6385,36
610,34	7640,97
610,53	9342,83
610,73	11992,91
610,92	15611,46
611,11	20329,98
611,31	25813,42
611,50	31257,33
611,70	36181,05
611,89	40068,30
612,08	42440,06
612,28	42818,93
612,47	41604,08
612,66	39521,09
612,86	37003,31
613,05	34409,15
613,24	32132,83
613,44	30370,76
613,63	28766,59
613,82	27725,61
614,02	26407,74
614,21	25330,30
614,41	24369,39
614,60	23564,13
614,79	22213,70
614,99	21293,35
615,18	20314,21
615,37	18863,84
615,57	17890,44
615,76	16186,12
615,95	14904,09
616,15	13631,28
616,34	12532,95
616,53	11408,01
616,73	10668,28
616,92	9642,86
617,11	8866,48
617,30	8243,28
617,50	7631,14
617,69	7042,76
617,88	6579,10
618,08	6073,66
618,27	5732,47
618,46	5297,48
618,66	4908,57
618,85	4619,81
619,04	4327,56
619,24	4062,97
619,43	3880,49
619,62	3631,05
619,82	3505,71
620,01	3409,05
620,20	3327,95
620,39	3205,48
620,59	3255,66
620,78	3189,71
620,97	3177,63
621,17	3188,07
621,36	3181,31
621,55	3178,86
621,74	3203,23
621,94	3185,21
622,13	3170,26
622,32	3177,22
622,52	3221,66
622,71	3237,84
622,90	3285,35
623,09	3329,18
623,29	3377,71
623,48	3459,84
623,67	3551,38
623,86	3594,19
624,06	3697,81
624,25	3692,08
624,44	3762,73
624,64	3811,88
624,83	3809,02
625,02	3835,23
625,21	3852,64
625,41	4005,21
625,60	3925,96
625,79	3938,04
625,98	4015,45
626,18	4088,97
626,37	4030,81
626,56	4043,51
626,75	4141,81
626,95	4084,06
627,14	4046,99
627,33	4123,38
627,52	4050,68
627,72	4022,21
627,91	4013,20
628,10	4011,56
628,29	3915,10
628,49	3872,91
628,68	3875,58
628,87	3770,52
629,06	3780,55
629,25	3801,23
629,45	3719,93
629,64	3881,72
629,83	3802,67
630,02	3944,39
630,22	4058,46
630,41	4379,58
630,60	4673,46
630,79	5089,00
630,98	5561,26
631,18	5935,22
631,37	6305,49
631,56	6531,79
631,75	6624,36
631,94	6362,63
632,14	6134,49
632,33	5655,47
632,52	5196,93
632,71	4735,31
632,90	4270,01
633,10	3903,22
633,29	3593,78
633,48	3284,94
633,67	2964,03
633,86	2788,10
634,06	2562,21
634,25	2345,95
634,44	2150,16
634,63	1970,97
634,82	1770,67
635,02	1616,67
635,21	1462,45
635,40	1327,49
635,59	1246,39
635,78	1112,46
635,97	1056,34
636,17	974,22
636,36	914,42
636,55	897,42
636,74	850,73
636,93	807,10
637,12	798,91
637,32	773,72
637,51	730,10
637,70	736,65
637,89	702,25
638,08	645,52
638,27	668,25
638,47	638,56
638,66	612,14
638,85	604,77
639,04	628,52
639,23	632,82
639,42	579,98
639,62	582,65
639,81	534,72
640,00	522,03
640,19	511,99
640,38	545,58
640,57	524,08
640,76	529,20
640,95	507,49
641,15	503,19
641,34	491,51
641,53	508,92
641,72	476,15
641,91	473,08
642,10	492,54
642,29	497,25
642,49	478,00
642,68	495,40
642,87	511,58
643,06	518,34
643,25	499,50
643,44	490,69
643,63	511,58
643,82	518,14
644,01	511,38
644,21	521,62
644,40	520,39
644,59	505,03
644,78	484,55
644,97	471,24
645,16	498,07
645,35	502,98
645,54	502,57
645,73	516,29
645,92	510,35
646,12	508,72
646,31	489,87
646,50	494,38
646,69	511,79
646,88	492,13
647,07	502,98
647,26	481,27
647,45	492,95
647,64	454,44
647,83	490,69
648,02	463,05
648,22	429,66
648,41	462,02
648,60	501,14
648,79	481,48
648,98	520,18
649,17	522,85
649,36	555,82
649,55	575,89
649,74	661,49
649,93	785,40
650,12	935,92
650,31	1142,97
650,50	1250,08
650,69	1375,62
650,88	1496,45
651,08	1573,66
651,27	1591,89
651,46	1526,97
651,65	1448,12
651,84	1430,92
652,03	1308,24
652,22	1233,90
652,41	1187,62
652,60	1155,05
652,79	1112,25
652,98	1089,11
653,17	1099,76
653,36	1124,13
653,55	1107,13
653,74	1061,87
653,93	1060,44
654,12	988,96
654,31	961,93
654,50	859,53
654,69	794,41
654,88	784,99
655,07	741,77
655,26	688,94
655,45	641,22
655,64	643,27
655,83	590,43
656,02	601,69
656,21	553,57
656,40	578,76
656,59	547,22
656,78	536,57
656,97	522,85
657,17	487,62
657,36	507,69
657,55	527,76
657,74	534,93
657,93	566,88
658,12	555,82
658,31	537,59
658,50	565,65
658,69	536,98
658,87	522,03
659,06	487,01
659,25	488,24
659,44	449,73
659,63	446,46
659,82	403,04
660,01	373,75
660,20	406,32
660,39	361,06
660,58	369,45
660,77	348,15
660,96	333,41
661,15	352,25
661,34	369,25
661,53	392,60
661,72	431,71
661,91	475,95
662,10	547,01
662,29	683,41
662,48	759,18
662,67	836,39
662,86	890,25
663,05	931,62
663,24	893,12
663,43	918,72
663,62	856,46
663,81	801,78
664,00	742,18
664,19	701,02
664,38	660,47
664,57	645,72
664,76	637,33
664,94	596,37
665,13	538,62
665,32	472,06
665,51	475,33
665,70	464,48
665,89	425,16
666,08	440,52
666,27	389,11
666,46	356,96
666,65	347,54
666,84	345,49
667,03	345,29
667,22	302,48
667,41	296,14
667,60	326,04
667,78	313,13
667,97	338,94
668,16	313,95
668,35	323,17
668,54	285,49
668,73	329,31
668,92	271,97
669,11	282,01
669,30	278,11
669,49	303,71
669,68	273,20
669,86	288,15
670,05	261,53
670,24	265,62
670,43	257,22
670,62	288,56
670,81	245,55
671,00	283,64
671,19	244,73
671,38	257,63
671,57	250,47
671,75	242,27
671,94	251,70
672,13	225,07
672,32	224,25
672,51	235,52
672,70	233,88
672,89	226,51
673,08	188,62
673,26	207,87
673,45	217,08
673,64	169,78
673,83	193,94
674,02	191,69
674,21	194,15
674,40	159,33
674,59	189,03
674,77	212,37
674,96	159,74
675,15	200,29
675,34	189,85
675,53	183,91
675,72	197,83
675,91	169,78
676,09	130,66
676,28	188,00
676,47	157,90
676,66	146,02
676,85	171,01
677,04	185,14
677,22	139,88
677,41	151,75
677,60	141,31
677,79	145,00
677,98	186,16
678,17	155,03
678,36	174,28
678,54	116,94
678,73	179,81
678,92	175,51
679,11	188,41
679,30	188,41
679,48	184,52
679,67	195,58
679,86	169,57
680,05	197,63
680,24	166,30
680,43	188,82
680,61	187,39
680,80	224,46
680,99	205,41
681,18	174,69
681,37	199,27
681,55	211,56
681,74	224,25
681,93	197,01
682,12	172,03
682,31	245,55
682,49	202,13
682,68	146,43
682,87	196,20
683,06	172,44
683,25	176,74
683,43	179,40
683,62	150,32
683,81	200,70
684,00	203,16
684,19	163,22
684,37	134,14
684,56	205,62
684,75	199,27
684,94	217,08
685,12	206,44
685,31	170,80
685,50	213,81
685,69	205,82
685,88	237,97
686,06	229,58
686,25	284,46
686,44	314,36
686,63	395,05
686,81	473,08
687,00	500,32
687,19	549,67
687,38	611,73
687,56	701,63
687,75	732,35
687,94	755,09
688,13	784,99
688,31	750,99
688,50	717,40
688,69	705,12
688,88	659,65
689,06	645,72
689,25	599,85
689,44	567,90
689,63	498,07
689,81	468,98
690,00	427,82
690,19	367,00
690,38	370,48
690,56	301,46
690,75	312,52
690,94	309,86
691,13	275,66
691,31	236,13
691,50	214,83
691,69	231,83
691,87	158,92
692,06	171,62
692,25	152,98
692,44	117,14
692,62	156,46
692,81	222,00
693,00	215,24
693,18	310,27
693,37	344,67
693,56	395,05
693,75	468,98
693,93	508,72
694,12	495,81
694,31	478,41
694,49	429,25
694,68	401,81
694,87	380,92
695,05	316,82
695,24	274,02
695,43	277,09
695,62	245,76
695,80	276,68
695,99	264,60
696,18	341,19
696,36	379,69
696,55	403,04
696,74	393,82
696,92	401,81
697,11	373,34
697,30	348,56
697,48	277,91
697,67	215,65
697,86	179,40
698,04	171,01
698,23	159,95
698,42	150,12
698,60	116,12
698,79	109,77
698,98	112,64
699,16	58,37
699,35	68,40
699,54	59,19
699,72	26,21
699,91	48,54
700,10	35,63
700,28	65,94
700,47	50,58
700,66	40,96
700,84	6,96
701,03	6,14
701,21	6,96
701,40	46,49
701,59	-0,20
701,77	19,46
701,96	58,57
702,15	21,30
702,33	39,32
702,52	52,84
702,71	102,81
702,89	88,27
703,08	115,51
703,26	107,11
703,45	158,51
703,64	134,55
703,82	156,06
704,01	194,35
704,20	201,52
704,38	217,70
704,57	228,35
704,75	284,87
704,94	288,97
705,13	294,29
705,31	427,41
705,50	471,85
705,68	552,13
705,87	712,49
706,06	838,64
706,24	1052,25
706,43	1259,50
706,61	1429,48
706,80	1567,11
706,99	1690,60
707,17	1751,83
707,36	1777,23
707,54	1736,06
707,73	1763,10
707,92	1719,06
708,10	1684,86
708,29	1743,64
708,47	1850,34
708,66	1977,31
708,84	2065,58
709,03	2094,25
709,22	2142,99
709,40	2096,10
709,59	2029,54
709,77	1817,16
709,96	1659,67
710,14	1479,25
710,33	1319,92
710,52	1212,60
710,70	1155,67
710,89	1030,33
711,07	1036,68
711,26	1058,60
711,44	1099,55
711,63	1205,23
711,81	1372,75
712,00	1440,13
712,19	1491,13
712,37	1544,99
712,56	1544,17
712,74	1474,74
712,93	1429,48
713,11	1310,50
713,30	1189,26
713,48	1098,12
713,67	988,55
713,85	855,23
714,04	797,27
714,22	697,95
714,41	594,93
714,59	560,53
714,78	501,55
714,97	424,34
715,15	333,20
715,34	296,96
715,52	249,44
715,71	185,96
715,89	148,48
716,08	63,90
716,26	34,82
716,45	23,35
716,63	26,62
716,82	14,34
717,00	-2,46
717,19	-5,94
717,37	42,60
717,56	15,56
717,74	-7,78
717,93	-7,58
718,11	-9,22
718,30	-32,97
718,48	23,14
718,67	10,24
718,85	-15,97
719,04	10,44
719,22	22,94
719,41	-19,66
719,59	-2,05
719,78	0,61
719,96	26,83
720,15	-1,84
720,33	-19,25
720,52	-40,14
720,70	-39,12
720,88	-54,27
721,07	-12,90
721,25	-37,89
721,44	-51,20
721,62	-5,53
721,81	-29,08
721,99	-57,96
722,18	-39,73
722,36	-40,55
722,55	-22,73
722,73	-51,40
722,92	-10,65
723,10	-32,97
723,28	-23,14
723,47	0,41
723,65	-21,09
723,84	-43,62
724,02	-21,09
724,21	-49,56
724,39	-15,56
724,58	-23,76
724,76	-13,93
724,94	-54,07
725,13	-27,85
725,31	-22,32
725,50	-21,50
725,68	-32,56
725,87	-32,97
726,05	-3,28
726,23	-46,90
726,42	19,46
726,60	-4,92
726,79	-5,94
726,97	26,01
727,16	43,21
727,34	4,51
727,52	54,89
727,71	51,20
727,89	59,60
728,08	-0,20
728,26	25,19
728,44	16,59
728,63	-20,89
728,81	10,65
729,00	-11,26
729,18	33,59
729,36	-19,66
729,55	-19,25
729,73	1,02
729,92	-10,85
730,10	-22,53
730,28	-43,01
730,47	-34,61
730,65	-34,82
730,84	-37,07
731,02	-42,39
731,20	-17,20
731,39	-41,98
731,57	-42,19
731,75	-26,62
731,94	-21,50
732,12	-63,08
732,31	-18,84
732,49	-44,03
732,67	-68,61
732,86	-46,08
733,04	-38,09
733,22	-52,22
733,41	-73,11
733,59	-67,38
733,78	-73,32
733,96	-25,80
734,14	-65,74
734,33	-48,13
734,51	-94,21
734,69	-90,11
734,88	-43,83
735,06	-42,39
735,24	-51,40
735,43	-67,58
735,61	-41,98
735,79	-62,26
735,98	-70,65
736,16	-40,75
736,34	-40,14
736,53	-55,91
736,71	-62,26
736,89	-63,69
737,08	2,66
737,26	-21,71
737,44	32,15
737,63	99,12
737,81	164,45
737,99	231,01
738,18	287,33
738,36	336,69
738,54	329,52
738,73	319,89
738,91	275,45
739,09	267,46
739,28	222,41
739,46	186,37
739,64	186,37
739,82	153,19
740,01	115,30
740,19	116,53
740,37	42,19
740,56	50,99
740,74	20,27
740,92	-3,69
741,11	-54,07
741,29	11,47
741,47	23,55
741,65	-34,82
741,84	-35,02
742,02	-22,73
742,20	-33,18
742,39	-33,38
742,57	-19,46
742,75	5,53
742,93	-4,10
743,12	-29,90
743,30	-12,70
743,48	-3,07
743,67	-39,12
743,85	-15,77
744,03	-12,70
744,21	-41,57
744,40	-29,90
744,58	-23,96
744,76	-51,61
744,94	-64,92
745,13	-73,93
745,31	-46,49
745,49	-45,06
745,67	-53,04
745,86	-50,18
746,04	-45,46
746,22	-66,97
746,40	-42,39
746,59	-40,34
746,77	-41,57
746,95	1,64
747,13	-52,43
747,32	-51,40
747,50	-59,80
747,68	-62,67
747,86	-59,60
748,05	-42,60
748,23	-45,67
748,41	-52,02
748,59	-70,45
748,77	-59,19
748,96	-19,25
749,14	-15,77
749,32	-1,02
749,50	52,43
749,69	112,02
749,87	177,56
750,05	232,03
750,23	227,32
750,41	306,79
750,60	396,08
750,78	452,19
750,96	463,66
751,14	493,15
751,32	490,08
751,51	497,86
751,69	438,47
751,87	433,15
752,05	335,66
752,23	296,34
752,42	230,40
752,60	199,06
752,78	163,84
752,96	101,37
753,14	103,63
753,33	25,19
753,51	-30,92
753,69	-5,12
753,87	-8,81
754,05	-25,39
754,23	-73,93
754,42	-37,68
754,60	-30,31
754,78	-62,46
754,96	-66,97
755,14	-88,06
755,32	-86,42
755,51	-72,91
755,69	-53,66
755,87	-72,50
756,05	-72,70
756,23	-49,56
756,41	-43,62
756,60	-82,33
756,78	-67,79
756,96	-51,40
757,14	-54,89
757,32	-76,80
757,50	-91,54
757,68	-64,10
757,87	-62,26
758,05	-64,92
758,23	-71,06
758,41	-89,70
758,59	-45,46
758,77	-50,38
758,95	-49,15
759,14	-40,75
759,32	-48,54
759,50	-28,06
759,68	22,94
759,86	-8,40
760,04	8,81
760,22	3,48
760,40	12,49
760,59	22,12
760,77	15,15
760,95	24,37
761,13	13,93
761,31	51,81
761,49	36,04
761,67	37,89
761,85	11,88
762,03	53,04
762,22	141,31
762,40	330,95
762,58	536,36
762,76	850,11
762,94	1117,17
763,12	1400,61
763,30	1573,04
763,48	1635,71
763,66	1674,21
763,84	1539,05
764,02	1392,21
764,21	1158,54
764,39	992,45
764,57	866,70
764,75	690,58
764,93	532,88
765,11	411,23
765,29	308,63
765,47	210,74
765,65	153,80
765,83	99,74
766,01	75,37
766,19	34,82
766,37	-0,61
766,56	-4,71
766,74	-7,99
766,92	-29,29
767,10	0,00
767,28	-57,75
767,46	-45,67
767,64	-103,83
767,82	-41,57
768,00	-37,27
768,18	-84,38
768,36	-34,20
768,54	-31,33
768,72	-69,22
768,90	-65,33
769,08	-45,26
769,26	-85,61
769,44	-79,46
769,62	-57,34
769,80	-48,13
769,98	-84,58
770,16	-79,05
770,34	-64,92
770,52	-57,14
770,71	-51,20
770,89	-63,69
771,07	-44,85
771,25	56,73
771,43	109,36
771,61	228,55
771,79	323,37
771,97	406,52
772,15	465,50
772,33	485,37
772,51	513,84
772,69	455,88
772,87	383,38
773,05	320,92
773,23	265,42
773,41	165,89
773,59	147,25
773,77	121,65
773,95	69,43
774,13	19,66
774,31	-5,53
774,49	14,75
774,67	8,81
774,85	-43,62
775,03	-24,58
775,21	-46,28
775,39	-45,46
775,57	-15,15
775,75	-30,51
775,93	-80,49
776,10	-84,99
776,28	-66,56
776,46	-74,75
776,64	-79,46
776,82	-63,49
777,00	-27,65
777,18	-62,05
777,36	-34,61
777,54	-69,02
777,72	-60,82
777,90	-70,86
778,08	-56,73
778,26	-44,65
778,44	-55,50
778,62	-64,51
778,80	-72,29
778,98	-42,60
779,16	-66,15
779,34	-89,29
779,52	-65,33
779,70	-76,80
779,88	-81,30
780,05	-65,54
780,23	-47,92
780,41	-54,07
780,59	-73,11
780,77	-71,88
780,95	-41,78
781,13	-49,15
781,31	-71,06
781,49	-63,49
781,67	-77,41
781,85	-66,35
782,03	-47,72
782,21	-57,34
782,39	-32,36
782,56	-43,21
782,74	-76,39
782,92	-96,05
783,10	-4,30
783,28	-46,49
783,46	-72,09
783,64	-55,50
783,82	-39,73
784,00	-45,87
784,18	-48,74
784,35	-66,97
784,53	-62,46
784,71	-59,39
784,89	-56,11
785,07	-71,47
785,25	-68,40
785,43	-56,52
785,61	-70,25
785,79	-66,97
785,96	-84,38
786,14	-2,05
786,32	-48,95
786,50	-36,45
786,68	-58,78
786,86	-39,32
787,04	-57,55
787,22	-40,55
787,39	-52,22
787,57	-50,18
787,75	-37,48
787,93	-39,53
788,11	-47,51
788,29	-41,98
788,47	-62,05
788,65	-62,05
788,82	-73,93
789,00	-29,29
789,18	-32,36
789,36	-35,02
789,54	-29,70
789,72	-68,81
789,89	-59,39
790,07	-32,36
790,25	-63,49
790,43	-26,62
790,61	-51,20
790,79	-33,59
790,96	-37,07
791,14	-25,39
791,32	-6,14
791,50	-43,01
791,68	-69,84
791,86	-45,67
792,03	-42,19
792,21	-50,38
792,39	-40,14
792,57	-36,25
792,75	-5,32
792,93	-34,82
793,10	-20,07
793,28	-22,53
793,46	32,77
793,64	68,61
793,82	95,44
793,99	190,46
794,17	233,47
794,35	314,57
794,53	322,35
794,71	296,34
794,88	267,87
795,06	260,50
795,24	241,46
795,42	143,36
795,60	109,16
795,77	78,64
795,95	62,67
796,13	45,46
796,31	58,78
796,49	6,55
796,66	22,73
796,84	-39,53
797,02	4,92
797,20	12,49
797,37	-46,49
797,55	-32,56
797,73	-9,22
797,91	2,25
798,08	-14,34
798,26	-73,52
798,44	-47,10
798,62	-48,95
798,80	-21,09
798,97	-10,85
799,15	-9,01
799,33	-5,12
799,51	58,98
799,68	96,66
799,86	139,67
800,04	153,19
800,22	233,06
800,39	305,35
800,57	380,10
800,75	421,27
800,93	473,29
801,10	463,66
801,28	466,53
801,46	405,91
801,63	382,97
801,81	308,83
801,99	256,00
802,17	219,34
802,34	143,56
802,52	111,20
802,70	108,95
802,88	109,16
803,05	52,84
803,23	78,03
803,41	46,90
803,58	-12,70
803,76	27,24
803,94	-9,83
804,12	17,00
804,29	-1,23
804,47	-2,25
804,65	-27,03
804,82	-15,15
805,00	3,28
805,18	-28,47
805,35	-14,13
805,53	-8,19
805,71	-7,37
805,89	-28,67
806,06	-40,75
806,24	14,54
806,42	-6,96
806,59	-53,25
806,77	-22,73
806,95	-46,49
807,12	-42,19
807,30	-27,44
807,48	-30,92
807,65	-26,21
807,83	-2,46
808,01	-38,30
808,18	-4,92
808,36	-17,82
808,54	-13,93
808,71	2,66
808,89	34,00
809,07	28,26
809,24	130,05
809,42	218,52
809,60	283,64
809,77	332,39
809,95	400,17
810,13	529,40
810,30	722,93
810,48	873,05
810,66	1080,30
810,83	1258,48
811,01	1348,79
811,18	1366,40
811,36	1360,26
811,54	1209,12
811,71	1034,22
811,89	873,66
812,07	679,11
812,24	594,53
812,42	486,60
812,59	413,89
812,77	372,32
812,95	320,30
813,12	222,20
813,30	250,26
813,48	195,99
813,65	199,27
813,83	150,94
814,00	108,75
814,18	78,44
814,36	26,21
814,53	28,06
814,71	67,58
814,88	5,12
815,06	-3,28
815,24	21,50
815,41	29,49
815,59	30,92
815,76	-3,07
815,94	18,43
816,12	-7,17
816,29	29,90
816,47	29,70
816,64	10,85
816,82	5,12
817,00	-14,75
817,17	16,38
817,35	0,41
817,52	-36,86
817,70	0,20
817,87	-3,89
818,05	-25,60
818,23	16,79
818,40	-40,14
818,58	-15,97
818,75	-13,11
818,93	-14,13
819,10	16,79
819,28	3,69
819,46	-21,50
819,63	-21,71
819,81	27,44
819,98	5,73
820,16	-17,82
820,33	-25,19
820,51	5,53
820,68	-6,55
820,86	7,58
821,03	-24,99
821,21	-12,90
821,39	10,65
821,56	-9,83
821,74	1,84
821,91	-4,92
822,09	24,99
822,26	-15,36
822,44	-1,02
822,61	-10,04
822,79	2,66
822,96	-4,71
823,14	13,72
823,31	0,82
823,49	-28,47
823,66	-8,19
823,84	-45,26
824,01	-9,42
824,19	-34,41
824,36	13,93
824,54	-3,89
824,71	5,94
824,89	-14,34
825,06	9,01
825,24	57,34
825,41	98,71
825,59	134,55
825,76	122,67
825,94	150,12
826,11	127,79
826,29	153,60
826,46	130,05
826,64	78,23
826,81	111,00
826,99	81,10
827,16	70,25
827,34	54,89
827,51	65,94
827,69	38,30
827,86	21,50
828,04	31,74
828,21	19,05
828,39	32,97
828,56	66,56
828,74	13,52
828,91	21,50
829,09	37,07
829,26	10,44
829,43	1,84
829,61	40,14
829,78	-21,71
829,96	-13,31
830,13	12,08
830,31	-8,19
830,48	13,31
830,66	-23,96
830,83	5,53
831,01	8,81
831,18	21,50
831,35	23,35
831,53	-1,64
831,70	4,30
831,88	30,72
832,05	-5,32
832,23	-16,59
832,40	6,14
832,57	-7,37
832,75	13,11
832,92	-10,65
833,10	24,17
833,27	5,94
833,45	-29,90
833,62	9,01
833,79	-20,89
833,97	-30,72
834,14	14,34
834,32	32,77
834,49	11,26
834,66	-12,90
834,84	10,44
835,01	6,76
835,19	-3,28
835,36	-22,12
835,53	-8,40
835,71	-1,23
835,88	29,08
836,06	-9,63
836,23	7,58
836,40	8,40
836,58	12,90
836,75	19,05
836,93	-8,60
837,10	-16,79
837,27	41,57
837,45	-6,96
837,62	1,23
837,79	-2,46
837,97	-13,11
838,14	-32,97
838,32	31,95
838,49	2,46
838,66	3,48
838,84	27,44
839,01	7,58
839,18	23,96
839,36	38,09
839,53	87,45
839,70	125,75
839,88	145,41
840,05	160,97
840,23	210,12
840,40	183,09
840,57	207,25
840,75	216,47
840,92	248,01
841,09	223,43
841,27	273,40
841,44	300,23
841,61	362,29
841,79	405,29
841,96	376,62
842,13	383,79
842,31	380,51
842,48	333,61
842,65	303,71
842,83	273,20
843,00	210,12
843,17	189,85
843,35	168,34
843,52	172,23
843,69	147,45
843,86	137,42
844,04	94,21
844,21	122,26
844,38	127,38
844,56	74,34
844,73	57,96
844,90	57,96
845,08	52,63
845,25	37,68
845,42	24,78
845,60	-10,44
845,77	31,13
845,94	21,50
846,11	27,65
846,29	-4,10
846,46	17,20
846,63	25,80
846,81	28,26
846,98	6,35
847,15	-6,96
847,32	-8,60
847,50	10,24
847,67	22,53
847,84	-13,31
848,01	19,87
848,19	-3,48
848,36	-17,20
848,53	-13,72
848,71	-15,77
848,88	16,18
849,05	29,29
849,22	-6,96
849,40	25,39
849,57	9,42
849,74	18,84
849,91	16,18
850,09	6,96
850,26	-28,06
850,43	13,11
850,60	-2,66
850,78	17,00
850,95	30,92
851,12	49,97
851,29	96,25
851,47	69,63
851,64	79,26
851,81	63,28
851,98	76,39
852,15	73,52
852,33	46,69
852,50	88,47
852,67	77,62
852,84	53,45
853,02	54,27
853,19	55,30
853,36	30,92
853,53	52,63
853,70	49,77
853,88	35,02
854,05	57,34
854,22	23,55
854,39	29,49
854,56	22,53
854,74	34,82
854,91	37,89
855,08	-9,42
855,25	-20,48
855,42	5,53
855,60	14,95
855,77	2,05
855,94	0,20
856,11	9,83
856,28	31,54
856,46	-9,01
856,63	-5,94
856,80	10,44
856,97	12,29
857,14	14,34
857,31	9,01
857,49	-0,61
857,66	32,56
857,83	-21,91
858,00	36,25
858,17	-9,63
858,34	-11,26
858,52	51,61
858,69	-2,25
858,86	-3,07
859,03	19,46
859,20	36,25
859,37	-18,23
859,55	-9,01
859,72	0,20
859,89	12,08
860,06	-4,71
860,23	-2,66
860,40	-4,51
860,57	20,68
860,75	-24,99
860,92	28,26
861,09	-20,48
861,26	8,81
861,43	11,06
861,60	21,91
861,77	10,04
861,95	13,11
862,12	13,31
862,29	7,17
862,46	16,18
862,63	34,20
862,80	5,73
862,97	9,63
863,14	10,04
863,31	-2,87
863,49	-1,02
863,66	-15,15
863,83	-14,34
864,00	0,82
864,17	9,22
864,34	27,65
864,51	47,31
864,68	35,23
864,85	7,37
865,02	40,75
865,20	30,92
865,37	-9,01
865,54	-24,99
865,71	3,48
865,88	51,20
866,05	25,80
866,22	58,16
866,39	44,85
866,56	2,46
866,73	19,87
866,90	3,07
867,07	32,36
867,25	30,11
867,42	43,83
867,59	27,03
867,76	5,12
867,93	33,59
868,10	8,19
868,27	26,83
868,44	30,92
868,61	0,00
868,78	-1,23
868,95	7,37
869,12	8,60
869,29	54,27
869,46	28,88
869,63	37,89
869,80	-3,07
869,97	11,67
870,14	0,41
870,32	29,29
870,49	2,46
870,66	4,71
870,83	10,85
871,00	-1,02
871,17	1,02
871,34	26,01
871,51	7,37
871,68	10,65
871,85	-4,92
872,02	-4,51
872,19	20,48
872,36	16,79
872,53	21,50
872,70	9,42
872,87	46,90
873,04	-0,61
873,21	2,87
873,38	27,03
873,55	24,17
873,72	-8,40
873,89	19,87
874,06	-7,58
874,23	21,09
874,40	30,51
874,57	17,20
874,74	14,13
874,91	9,42
875,08	-4,30
875,25	2,87
875,42	-8,81
875,59	18,23
875,76	60,21
875,93	20,89
876,10	17,82
876,27	2,05
876,44	-16,18
876,61	5,12
876,78	14,95
876,95	-1,84
877,12	39,53
877,29	15,77
877,46	0,61
877,62	52,63
877,79	26,83
877,96	23,14
878,13	21,50
878,30	41,78
878,47	-7,17
878,64	12,49
878,81	3,69
878,98	26,42
879,15	36,04
879,32	9,63
879,49	2,87
879,66	27,24
879,83	-0,61
880,00	19,66
880,17	10,44
880,34	-5,94
880,51	8,81
880,67	13,93
880,84	-22,12
881,01	13,72
881,18	-1,43
881,35	8,60
881,52	10,24
881,69	12,08
881,86	47,51
882,03	24,78
882,20	40,14
882,37	-22,32
882,54	9,63
882,70	24,99
882,87	16,38
883,04	28,26
883,21	-13,11
883,38	-10,24
883,55	4,71
883,72	7,37
883,89	12,70
884,06	-1,84
884,23	-4,92
884,39	-29,08
884,56	-6,14
884,73	39,73
884,90	19,46
885,07	20,68
885,24	12,08
885,41	2,46
885,58	44,85
885,74	12,90
885,91	30,92
886,08	13,31
886,25	-6,14
886,42	12,29
886,59	33,59
886,76	-8,81
886,93	-19,05
887,09	23,55
887,26	23,55
887,43	23,76
887,60	14,95
887,77	31,54
887,94	26,62
888,10	23,35
888,27	37,89
888,44	38,50
888,61	27,65
888,78	3,89
888,95	33,79
889,12	51,20
889,28	19,87
889,45	34,00
889,62	-3,48
889,79	17,41
889,96	44,03
890,13	20,48
890,29	9,83
890,46	-7,37
890,63	22,53
890,80	-10,04
890,97	29,49
891,13	-25,19
891,30	13,11
891,47	43,62
891,64	31,95
891,81	18,23
891,98	8,60
892,14	29,90
892,31	57,75
892,48	21,50
892,65	11,88
892,82	20,07
892,98	-2,25
893,15	30,72
893,32	30,72
>>>>>End Processed Spectral Data<<<<<
