SpectraSuite Datei
++++++++++++++++++++++++++++++++++++
Datum: Tue Dec 10 14:52:39 CET 2019
Benutzer: Lichtquellen1
Dark-Spektrum vorhanden: Ja
Referenz-Spektrum vorhanden: Nein
Zahl der probierten Teilspektren: 1
Spektrometer: USB4F05832
Integrationszeit (usec): 100000 (USB4F05832)
Spektren Durchschnitt berechnet: 10 (USB4F05832)
Boxcar Glättung: 0 (USB4F05832)
Dunkelstromkorrektur: Nein (USB4F05832)
Puls/Lampe aktiviert: Nein (USB4F05832)
Correct for Detector Non-linearity: Nein (USB4F05832)
Streulichtkorrektur: Nein (USB4F05832)
Anzahl Pixel in verarbeitetem Spektrum: 3648
>>>>>Begin Processed Spectral Data<<<<<
177,54	16,79
177,75	16,79
177,97	16,79
178,19	-20,89
178,41	27,44
178,63	5,94
178,85	17,82
179,07	11,47
179,29	29,08
179,51	12,90
179,73	35,02
179,95	0,82
180,17	14,13
180,39	14,75
180,61	34,61
180,83	23,76
181,05	-3,07
181,27	54,68
181,49	21,50
181,71	17,82
181,92	39,94
182,14	56,52
182,36	42,19
182,58	22,53
182,80	30,31
183,02	83,76
183,24	31,13
183,46	27,44
183,68	48,74
183,90	20,07
184,12	61,44
184,34	53,86
184,56	49,56
184,78	39,32
185,00	27,24
185,21	41,16
185,43	29,49
185,65	48,74
185,87	38,09
186,09	58,57
186,31	37,89
186,53	40,96
186,75	63,90
186,97	43,21
187,19	37,48
187,41	9,83
187,63	81,71
187,84	24,99
188,06	64,92
188,28	30,11
188,50	34,41
188,72	81,30
188,94	26,83
189,16	55,70
189,38	34,61
189,60	61,44
189,82	39,73
190,03	25,80
190,25	41,57
190,47	65,54
190,69	21,50
190,91	70,45
191,13	67,17
191,35	46,08
191,57	54,27
191,79	50,18
192,01	12,29
192,22	45,46
192,44	57,75
192,66	39,73
192,88	30,92
193,10	56,32
193,32	59,80
193,54	43,42
193,76	34,41
193,98	9,22
194,19	30,31
194,41	60,21
194,63	24,17
194,85	57,96
195,07	65,33
195,29	39,12
195,51	55,70
195,73	56,32
195,94	30,31
196,16	31,13
196,38	34,00
196,60	2,05
196,82	27,85
197,04	50,79
197,26	37,48
197,48	3,69
197,69	36,04
197,91	22,12
198,13	30,92
198,35	34,00
198,57	53,66
198,79	26,01
199,01	45,87
199,22	47,31
199,44	39,94
199,66	32,77
199,88	42,19
200,10	36,25
200,32	65,33
200,54	38,91
200,75	58,16
200,97	42,80
201,19	39,73
201,41	33,59
201,63	46,49
201,85	58,37
202,06	34,20
202,28	27,24
202,50	6,14
202,72	45,87
202,94	47,92
203,16	18,43
203,38	51,61
203,59	25,39
203,81	53,66
204,03	27,44
204,25	43,01
204,47	30,11
204,69	50,99
204,90	35,43
205,12	34,00
205,34	25,60
205,56	27,44
205,78	33,38
206,00	28,26
206,21	45,87
206,43	35,23
206,65	35,43
206,87	45,87
207,09	40,34
207,30	69,22
207,52	19,25
207,74	13,52
207,96	25,19
208,18	77,21
208,40	26,21
208,61	75,77
208,83	52,84
209,05	46,08
209,27	60,21
209,49	55,91
209,70	52,22
209,92	34,41
210,14	58,98
210,36	26,83
210,58	65,74
210,79	37,89
211,01	49,97
211,23	89,09
211,45	52,02
211,67	29,08
211,88	38,30
212,10	82,53
212,32	37,89
212,54	33,38
212,76	23,35
212,97	57,14
213,19	57,75
213,41	28,47
213,63	29,90
213,85	1,64
214,06	36,86
214,28	38,71
214,50	71,47
214,72	-2,25
214,94	1,23
215,15	63,69
215,37	50,58
215,59	73,32
215,81	55,91
216,02	59,60
216,24	59,60
216,46	55,50
216,68	31,74
216,90	73,73
217,11	72,29
217,33	72,70
217,55	41,37
217,77	65,74
217,98	43,01
218,20	22,32
218,42	52,63
218,64	71,88
218,85	54,27
219,07	10,44
219,29	63,28
219,51	54,27
219,73	32,15
219,94	36,86
220,16	64,31
220,38	43,62
220,60	23,35
220,81	46,28
221,03	35,23
221,25	37,27
221,47	49,36
221,68	42,39
221,90	40,55
222,12	43,83
222,34	73,11
222,55	57,55
222,77	8,19
222,99	29,29
223,21	13,11
223,42	47,51
223,64	30,11
223,86	18,43
224,08	65,13
224,29	55,70
224,51	60,01
224,73	26,21
224,94	60,21
225,16	70,25
225,38	42,39
225,60	35,02
225,81	40,14
226,03	46,28
226,25	15,36
226,47	15,97
226,68	35,63
226,90	30,72
227,12	58,37
227,33	9,63
227,55	53,45
227,77	54,27
227,99	58,98
228,20	62,87
228,42	52,22
228,64	26,83
228,86	37,68
229,07	70,25
229,29	53,45
229,51	44,03
229,72	51,61
229,94	7,78
230,16	57,34
230,38	41,16
230,59	33,18
230,81	6,35
231,03	48,95
231,24	23,35
231,46	36,25
231,68	34,41
231,89	33,59
232,11	52,84
232,33	56,52
232,55	56,93
232,76	44,65
232,98	34,41
233,20	35,43
233,41	32,56
233,63	63,69
233,85	60,01
234,06	27,03
234,28	47,92
234,50	53,66
234,71	32,77
234,93	43,42
235,15	17,00
235,37	25,80
235,58	19,87
235,80	24,37
236,02	71,47
236,23	45,67
236,45	32,97
236,67	22,32
236,88	30,72
237,10	43,01
237,32	45,46
237,53	62,46
237,75	19,46
237,97	57,96
238,18	68,40
238,40	60,01
238,62	56,73
238,83	51,81
239,05	36,66
239,27	52,63
239,48	66,35
239,70	29,08
239,92	59,39
240,13	54,48
240,35	46,90
240,57	60,62
240,78	41,78
241,00	44,85
241,22	43,01
241,43	67,38
241,65	42,80
241,87	45,87
242,08	31,74
242,30	58,57
242,52	52,02
242,73	51,40
242,95	58,16
243,16	20,68
243,38	54,48
243,60	53,45
243,81	83,56
244,03	64,51
244,25	57,75
244,46	15,97
244,68	26,01
244,90	63,08
245,11	28,47
245,33	51,40
245,55	67,99
245,76	71,47
245,98	47,31
246,19	54,68
246,41	55,09
246,63	57,55
246,84	25,39
247,06	49,15
247,28	37,48
247,49	39,53
247,71	35,23
247,92	60,42
248,14	12,49
248,36	78,85
248,57	55,50
248,79	43,01
249,01	78,23
249,22	33,59
249,44	58,16
249,65	64,31
249,87	50,58
250,09	38,50
250,30	40,96
250,52	32,56
250,73	58,57
250,95	53,45
251,17	57,34
251,38	42,19
251,60	24,78
251,81	54,48
252,03	74,75
252,25	55,30
252,46	66,56
252,68	65,33
252,89	27,03
253,11	45,87
253,33	56,73
253,54	49,97
253,76	62,05
253,97	37,07
254,19	48,54
254,41	38,91
254,62	62,26
254,84	34,61
255,05	46,49
255,27	41,16
255,49	32,36
255,70	29,90
255,92	34,41
256,13	27,85
256,35	47,72
256,56	12,08
256,78	46,49
257,00	12,90
257,21	55,70
257,43	65,74
257,64	65,33
257,86	55,50
258,08	67,99
258,29	46,08
258,51	32,15
258,72	51,20
258,94	14,54
259,15	36,04
259,37	49,77
259,59	42,80
259,80	48,33
260,02	50,79
260,23	17,41
260,45	29,90
260,66	20,68
260,88	29,29
261,09	67,38
261,31	55,50
261,53	58,57
261,74	33,38
261,96	49,15
262,17	25,60
262,39	40,55
262,60	30,31
262,82	62,67
263,03	65,94
263,25	52,43
263,46	38,09
263,68	22,53
263,90	55,70
264,11	26,62
264,33	68,20
264,54	55,70
264,76	53,25
264,97	72,70
265,19	35,84
265,40	55,30
265,62	41,16
265,83	48,13
266,05	31,54
266,26	53,86
266,48	66,76
266,70	64,72
266,91	45,87
267,13	51,20
267,34	43,21
267,56	37,89
267,77	40,14
267,99	74,14
268,20	50,79
268,42	49,97
268,63	71,88
268,85	53,66
269,06	43,62
269,28	53,66
269,49	31,33
269,71	35,84
269,92	13,93
270,14	53,66
270,35	32,36
270,57	46,90
270,78	74,75
271,00	32,36
271,21	60,21
271,43	65,94
271,64	23,35
271,86	67,38
272,07	71,47
272,29	48,13
272,50	36,04
272,72	42,80
272,93	83,97
273,15	60,21
273,36	31,74
273,58	29,90
273,79	86,63
274,01	80,89
274,22	27,24
274,44	53,04
274,65	33,38
274,87	35,84
275,08	28,88
275,30	59,39
275,51	92,98
275,73	51,20
275,94	40,55
276,16	30,72
276,37	56,52
276,59	73,73
276,80	54,48
277,02	85,61
277,23	13,11
277,45	60,82
277,66	32,77
277,88	44,85
278,09	80,08
278,30	-4,71
278,52	49,36
278,73	81,92
278,95	66,35
279,16	25,19
279,38	28,26
279,59	64,31
279,81	13,11
280,02	77,41
280,24	42,60
280,45	69,63
280,67	65,33
280,88	60,42
281,09	55,09
281,31	52,43
281,52	39,32
281,74	87,65
281,95	76,59
282,17	47,51
282,38	65,13
282,60	27,44
282,81	33,59
283,02	32,56
283,24	35,43
283,45	40,34
283,67	41,98
283,88	23,55
284,10	43,01
284,31	68,40
284,53	37,07
284,74	30,72
284,95	38,91
285,17	23,96
285,38	34,61
285,60	43,83
285,81	64,51
286,03	66,15
286,24	31,13
286,45	87,04
286,67	64,51
286,88	80,49
287,10	22,94
287,31	57,34
287,53	46,49
287,74	64,92
287,95	5,73
288,17	69,22
288,38	50,79
288,60	46,90
288,81	67,79
289,02	52,02
289,24	32,15
289,45	56,73
289,67	13,31
289,88	41,16
290,10	69,43
290,31	16,18
290,52	37,89
290,74	65,94
290,95	64,10
291,17	74,75
291,38	38,50
291,59	45,26
291,81	45,67
292,02	56,93
292,24	34,20
292,45	27,03
292,66	43,01
292,88	65,54
293,09	66,15
293,31	51,81
293,52	69,84
293,73	50,99
293,95	71,88
294,16	28,06
294,37	29,29
294,59	66,56
294,80	57,34
295,02	29,49
295,23	50,99
295,44	39,94
295,66	67,99
295,87	61,64
296,09	58,16
296,30	73,52
296,51	34,41
296,73	28,06
296,94	79,46
297,15	39,53
297,37	47,10
297,58	64,10
297,79	57,96
298,01	66,35
298,22	6,35
298,44	68,81
298,65	86,22
298,86	24,17
299,08	34,00
299,29	52,84
299,50	40,34
299,72	47,31
299,93	79,46
300,14	69,02
300,36	33,59
300,57	86,63
300,79	50,99
301,00	41,57
301,21	34,20
301,43	48,95
301,64	38,71
301,85	36,66
302,07	56,32
302,28	51,81
302,49	67,58
302,71	20,27
302,92	34,20
303,13	33,59
303,35	41,37
303,56	60,01
303,77	79,26
303,99	36,25
304,20	24,37
304,41	48,95
304,63	60,82
304,84	51,40
305,05	77,82
305,27	55,91
305,48	72,91
305,69	74,96
305,91	16,18
306,12	32,97
306,33	20,07
306,55	114,07
306,76	46,69
306,97	62,67
307,19	43,42
307,40	48,13
307,61	61,85
307,82	68,40
308,04	54,07
308,25	39,32
308,46	15,97
308,68	38,71
308,89	51,61
309,10	35,02
309,32	45,87
309,53	45,67
309,74	48,95
309,96	57,34
310,17	53,25
310,38	35,23
310,59	32,15
310,81	53,86
311,02	60,62
311,23	57,55
311,45	56,93
311,66	53,66
311,87	38,91
312,09	36,45
312,30	49,56
312,51	52,02
312,72	57,96
312,94	62,46
313,15	37,48
313,36	48,95
313,58	47,72
313,79	60,21
314,00	80,89
314,21	70,65
314,43	57,96
314,64	50,99
314,85	35,63
315,06	56,93
315,28	60,01
315,49	86,83
315,70	60,42
315,92	78,85
316,13	93,59
316,34	47,31
316,55	41,16
316,77	67,99
316,98	96,46
317,19	67,79
317,40	69,63
317,62	41,16
317,83	62,05
318,04	58,16
318,25	71,06
318,47	69,43
318,68	58,37
318,89	70,04
319,11	66,76
319,32	81,51
319,53	92,98
319,74	56,11
319,96	50,18
320,17	87,45
320,38	67,58
320,59	80,69
320,81	65,94
321,02	48,95
321,23	50,99
321,44	94,00
321,65	74,75
321,87	61,23
322,08	78,44
322,29	46,49
322,50	58,16
322,72	77,82
322,93	63,69
323,14	63,49
323,35	75,57
323,57	83,76
323,78	40,55
323,99	68,81
324,20	74,55
324,41	61,64
324,63	84,58
324,84	57,14
325,05	75,57
325,26	83,97
325,48	88,06
325,69	41,57
325,90	66,35
326,11	69,22
326,32	85,40
326,54	71,06
326,75	61,44
326,96	65,33
327,17	87,65
327,39	55,30
327,60	98,71
327,81	85,20
328,02	100,56
328,23	76,39
328,45	78,85
328,66	88,47
328,87	110,39
329,08	67,58
329,29	103,01
329,51	73,73
329,72	48,74
329,93	77,00
330,14	104,65
330,35	100,15
330,56	89,09
330,78	89,70
330,99	89,70
331,20	97,69
331,41	72,29
331,62	110,39
331,84	93,59
332,05	129,23
332,26	90,32
332,47	120,01
332,68	112,23
332,90	77,82
333,11	109,36
333,32	82,74
333,53	121,03
333,74	87,24
333,95	121,85
334,17	103,83
334,38	108,34
334,59	96,25
334,80	84,58
335,01	108,95
335,22	103,22
335,44	113,66
335,65	116,53
335,86	109,36
336,07	94,82
336,28	125,54
336,49	119,60
336,71	123,08
336,92	115,92
337,13	116,73
337,34	106,08
337,55	104,45
337,76	125,54
337,97	95,44
338,19	136,80
338,40	102,60
338,61	146,02
338,82	128,00
339,03	149,71
339,24	126,56
339,45	149,30
339,67	123,29
339,88	125,95
340,09	132,09
340,30	149,91
340,51	133,32
340,72	136,60
340,93	148,07
341,15	147,45
341,36	163,84
341,57	144,38
341,78	146,63
341,99	143,15
342,20	163,22
342,41	166,70
342,62	156,67
342,84	144,38
343,05	128,82
343,26	152,57
343,47	165,48
343,68	168,96
343,89	166,09
344,10	174,49
344,31	176,53
344,53	139,06
344,74	157,49
344,95	162,40
345,16	122,67
345,37	158,72
345,58	214,42
345,79	204,18
346,00	189,64
346,21	198,86
346,42	157,49
346,64	166,09
346,85	193,33
347,06	192,30
347,27	192,30
347,48	200,91
347,69	177,56
347,90	213,40
348,11	206,64
348,32	183,29
348,53	205,41
348,75	213,19
348,96	209,71
349,17	211,56
349,38	219,75
349,59	251,49
349,80	211,76
350,01	240,84
350,22	190,26
350,43	182,88
350,64	235,52
350,85	214,22
351,06	232,65
351,28	244,53
351,49	240,02
351,70	224,87
351,91	235,52
352,12	216,88
352,33	219,95
352,54	220,36
352,75	264,80
352,96	218,72
353,17	257,63
353,38	259,89
353,59	256,61
353,80	280,57
354,01	266,03
354,22	269,72
354,44	246,78
354,65	251,08
354,86	254,36
355,07	267,87
355,28	275,25
355,49	282,41
355,70	277,50
355,91	262,75
356,12	290,61
356,33	277,50
356,54	274,63
356,75	278,73
356,96	272,79
357,17	297,16
357,38	316,41
357,59	277,29
357,80	296,75
358,01	329,11
358,22	288,15
358,43	295,93
358,64	301,67
358,85	304,33
359,07	315,80
359,28	343,24
359,49	304,12
359,70	290,81
359,91	308,42
360,12	332,18
360,33	310,88
360,54	316,82
360,75	333,00
360,96	338,73
361,17	320,71
361,38	348,77
361,59	351,02
361,80	310,06
362,01	361,47
362,22	346,93
362,43	358,80
362,64	357,58
362,85	363,10
363,06	365,77
363,27	390,55
363,48	370,89
363,69	387,89
363,90	346,93
364,11	393,62
364,32	385,63
364,53	380,51
364,74	381,33
364,95	390,34
365,16	398,33
365,37	407,75
365,58	397,10
365,79	414,10
366,00	392,80
366,21	400,99
366,42	435,81
366,63	416,15
366,84	433,55
367,05	423,11
367,26	387,89
367,47	406,93
367,68	414,51
367,89	434,17
368,10	416,97
368,31	432,53
368,52	399,56
368,73	419,83
368,94	445,02
369,15	439,70
369,36	446,05
369,57	455,26
369,78	463,86
369,99	462,64
370,20	473,90
370,40	462,02
370,61	515,06
370,82	502,78
371,03	497,25
371,24	485,37
371,45	503,60
371,66	500,11
371,87	500,73
372,08	515,88
372,29	502,16
372,50	493,15
372,71	495,81
372,92	540,05
373,13	516,70
373,34	541,07
373,55	560,94
373,76	525,30
373,97	543,74
374,18	573,02
374,39	560,73
374,60	568,52
374,81	539,64
375,01	537,39
375,22	555,41
375,43	550,70
375,64	584,29
375,85	552,13
376,06	600,26
376,27	598,83
376,48	582,85
376,69	565,44
376,90	589,20
377,11	605,17
377,32	549,27
377,53	564,83
377,74	608,04
377,94	588,38
378,15	611,32
378,36	599,65
378,57	635,69
378,78	589,00
378,99	628,73
379,20	640,81
379,41	644,70
379,62	617,67
379,83	639,17
380,04	649,82
380,25	656,99
380,45	660,88
380,66	650,23
380,87	642,65
381,08	615,62
381,29	672,14
381,50	676,44
381,71	670,71
381,92	660,88
382,13	702,86
382,34	657,19
382,55	678,70
382,75	701,02
382,96	676,44
383,17	683,20
383,38	725,19
383,59	702,25
383,80	680,95
384,01	750,58
384,22	703,48
384,43	742,59
384,63	727,64
384,84	715,36
385,05	729,08
385,26	749,56
385,47	781,91
385,68	751,81
385,89	772,08
386,10	763,48
386,30	795,84
386,51	772,08
386,72	773,72
386,93	765,74
387,14	764,92
387,35	830,25
387,56	765,74
387,77	795,02
387,97	811,00
388,18	828,81
388,39	855,44
388,60	839,05
388,81	839,46
389,02	837,00
389,23	820,62
389,43	803,21
389,64	861,17
389,85	887,18
390,06	843,35
390,27	867,11
390,48	860,35
390,69	853,18
390,89	964,80
391,10	953,12
391,31	878,17
391,52	935,31
391,73	952,92
391,94	879,60
392,14	923,43
392,35	941,45
392,56	979,95
392,77	993,06
392,98	937,76
393,19	960,91
393,39	980,16
393,60	982,21
393,81	1013,95
394,02	986,10
394,23	984,66
394,44	1001,87
394,64	959,27
394,85	1053,88
395,06	993,47
395,27	990,40
395,48	1046,92
395,69	1000,84
395,89	1064,53
396,10	1078,05
396,31	1007,60
396,52	1087,88
396,73	1061,46
396,93	1107,54
397,14	1078,46
397,35	1105,70
397,56	1079,28
397,77	1079,07
397,97	1107,34
398,18	1156,69
398,39	1132,32
398,60	1132,32
398,81	1110,41
399,01	1188,44
399,22	1155,26
399,43	1166,11
399,64	1180,65
399,85	1201,95
400,05	1161,81
400,26	1206,66
400,47	1171,44
400,68	1174,92
400,89	1178,61
401,09	1188,85
401,30	1205,64
401,51	1183,73
401,72	1246,60
401,93	1290,02
402,13	1239,23
402,34	1250,28
402,55	1236,77
402,76	1258,07
402,96	1301,69
403,17	1230,01
403,38	1239,84
403,59	1278,96
403,80	1325,45
404,00	1307,83
404,21	1273,22
404,42	1337,53
404,63	1340,60
404,83	1349,20
405,04	1295,75
405,25	1342,44
405,46	1369,07
405,66	1352,27
405,87	1354,94
406,08	1381,76
406,29	1429,89
406,49	1369,27
406,70	1380,13
406,91	1349,41
407,12	1433,17
407,32	1362,92
407,53	1478,22
407,74	1419,45
407,95	1378,28
408,15	1464,50
408,36	1406,14
408,57	1410,23
408,78	1475,56
408,98	1449,35
409,19	1461,23
409,40	1515,91
409,61	1509,76
409,81	1458,97
410,02	1488,46
410,23	1457,13
410,44	1578,57
410,64	1553,79
410,85	1524,10
411,06	1575,09
411,26	1562,60
411,47	1555,43
411,68	1542,73
411,89	1519,59
412,09	1581,65
412,30	1550,52
412,51	1551,75
412,72	1596,80
412,92	1638,17
413,13	1575,50
413,34	1584,10
413,54	1601,92
413,75	1638,78
413,96	1626,09
414,17	1588,20
414,37	1592,91
414,58	1611,34
414,79	1708,83
414,99	1693,67
415,20	1667,46
415,41	1687,94
415,61	1705,34
415,82	1730,12
416,03	1633,05
416,24	1675,65
416,44	1737,09
416,65	1760,43
416,86	1721,73
417,06	1711,49
417,27	1653,94
417,48	1691,42
417,68	1771,29
417,89	1766,17
418,10	1709,44
418,30	1764,33
418,51	1772,72
418,72	1718,66
418,92	1807,54
419,13	1757,77
419,34	1790,95
419,55	1763,51
419,75	1867,54
419,96	1779,89
420,17	1835,80
420,37	1870,00
420,58	1786,85
420,79	1747,33
420,99	1843,99
421,20	1868,36
421,41	1842,56
421,61	1873,48
421,82	1807,74
422,03	1874,51
422,23	1841,74
422,44	1935,54
422,65	1903,79
422,85	1893,14
423,06	1881,26
423,26	1948,64
423,47	1961,95
423,68	1937,17
423,88	1958,27
424,09	1971,37
424,30	1967,28
424,50	1965,23
424,71	2034,04
424,92	1966,46
425,12	1968,30
425,33	2032,61
425,54	2078,28
425,74	2064,97
425,95	2031,79
426,15	2144,84
426,36	1994,11
426,57	2090,98
426,77	2070,70
426,98	2105,31
427,19	2124,56
427,39	2128,04
427,60	2089,54
427,81	2126,00
428,01	2115,76
428,22	2189,69
428,42	2071,93
428,63	2177,20
428,84	2155,90
429,04	2083,81
429,25	2190,92
429,45	2123,54
429,66	2233,72
429,87	2265,67
430,07	2232,29
430,28	2207,10
430,49	2196,65
430,69	2309,49
430,90	2234,95
431,10	2243,34
431,31	2234,54
431,52	2289,22
431,72	2192,15
431,93	2219,79
432,13	2272,63
432,34	2345,74
432,55	2242,73
432,75	2402,06
432,96	2400,01
433,16	2413,53
433,37	2387,11
433,58	2468,21
433,78	2389,98
433,99	2275,09
434,19	2472,31
434,40	2422,54
434,60	2480,70
434,81	2513,27
435,02	2422,13
435,22	2533,13
435,43	2443,64
435,63	2459,61
435,84	2488,90
436,05	2537,84
436,25	2386,70
436,46	2561,39
436,66	2540,91
436,87	2524,94
437,07	2462,48
437,28	2567,54
437,48	2623,04
437,69	2531,49
437,90	2593,55
438,10	2572,25
438,31	2588,43
438,51	2688,98
438,72	2608,50
438,92	2646,18
439,13	2685,09
439,34	2700,25
439,54	2710,69
439,75	2613,82
439,95	2649,87
440,16	2762,51
440,36	2721,34
440,57	2689,39
440,77	2789,13
440,98	2719,70
441,18	2699,02
441,39	2661,95
441,60	2846,06
441,80	2790,15
442,01	2673,01
442,21	2838,69
442,42	2694,92
442,62	2787,29
442,83	2790,36
443,03	2838,48
443,24	2811,86
443,44	2825,38
443,65	2856,71
443,85	2812,68
444,06	2865,93
444,26	2839,92
444,47	2816,78
444,67	2960,95
444,88	2853,84
445,09	2854,66
445,29	2897,06
445,50	2895,83
445,70	2850,98
445,91	2894,19
446,11	2912,21
446,32	2956,86
446,52	2925,32
446,73	2990,24
446,93	2965,05
447,14	2958,09
447,34	2990,24
447,55	2924,70
447,75	2934,94
447,96	3005,39
448,16	2955,83
448,37	3033,66
448,57	3007,44
448,78	3038,78
448,98	2990,03
449,19	3022,39
449,39	3014,00
449,60	3039,19
449,80	3097,96
450,01	3118,65
450,21	3093,87
450,42	3122,74
450,62	3089,16
450,83	3091,20
451,03	3144,04
451,23	3142,40
451,44	3153,46
451,64	3205,69
451,85	3124,59
452,05	3211,62
452,26	3157,35
452,46	3207,12
452,67	3206,30
452,87	3191,76
453,08	3198,31
453,28	3118,44
453,49	3296,62
453,69	3181,72
453,90	3198,11
454,10	3352,52
454,31	3275,32
454,51	3287,40
454,71	3307,47
454,92	3273,27
455,12	3239,48
455,33	3425,23
455,53	3360,51
455,74	3480,52
455,94	3632,48
456,15	3601,97
456,35	3742,87
456,55	3596,64
456,76	3712,76
456,96	3911,62
457,17	3602,79
457,37	4073,00
457,58	3779,12
457,78	3951,97
457,99	3941,73
458,19	3677,74
458,39	4015,04
458,60	4042,28
458,80	4049,04
459,01	3900,56
459,21	3918,99
459,42	4058,87
459,62	3790,59
459,82	4219,02
460,03	4103,72
460,23	4217,59
460,44	4126,25
460,64	3949,30
460,85	4309,75
461,05	4065,63
461,25	4041,26
461,46	4368,52
461,66	4261,00
461,87	4158,61
462,07	4175,19
462,27	4097,99
462,48	4019,55
462,68	4184,41
462,89	4207,35
463,09	4174,37
463,29	4312,82
463,50	4241,14
463,70	4409,28
463,91	4265,10
464,11	4172,53
464,31	4351,32
464,52	4435,49
464,72	4517,41
464,93	4432,21
465,13	4685,14
465,33	4486,49
465,54	4291,72
465,74	4331,86
465,95	4527,65
466,15	4665,48
466,35	4631,69
466,56	4635,37
466,76	4651,55
466,96	4586,84
467,17	4574,96
467,37	4680,02
467,58	4629,43
467,78	4673,26
467,98	4785,49
468,19	4635,37
468,39	4855,32
468,59	4911,03
468,80	4837,71
469,00	4750,06
469,21	4774,22
469,41	4842,01
469,61	5077,73
469,82	4838,74
470,02	5077,94
470,22	5335,78
470,43	5177,06
470,63	5000,93
470,83	5393,12
471,04	5200,61
471,24	5282,74
471,45	5145,73
471,65	5302,60
471,85	5217,20
472,06	5367,52
472,26	5397,63
472,46	5450,67
472,67	5582,97
472,87	5586,45
473,07	5563,51
473,28	5462,96
473,48	5714,24
473,68	5757,66
473,89	5712,60
474,09	5799,23
474,29	5737,38
474,50	5944,84
474,70	5856,37
474,90	6016,11
475,11	6119,54
475,31	6072,64
475,51	6142,68
475,72	6222,14
475,92	6184,25
476,12	6165,00
476,33	6405,64
476,53	6405,43
476,73	6432,47
476,93	6610,43
477,14	6462,37
477,34	6490,42
477,54	6523,19
477,75	6780,82
477,95	6725,32
478,15	6684,37
478,36	6781,64
478,56	6898,17
478,76	7019,00
478,97	7066,93
479,17	6989,10
479,37	7096,21
479,57	7080,03
479,78	7105,22
479,98	7184,27
480,18	7338,90
480,39	7406,68
480,59	7398,90
480,79	7478,16
480,99	7550,04
481,20	7518,30
481,40	7619,67
481,60	7810,34
481,81	7659,61
482,01	7779,62
482,21	7753,20
482,41	7816,48
482,62	7874,24
482,82	8025,99
483,02	8084,15
483,23	8038,48
483,43	8180,41
483,63	8121,02
483,83	8299,19
484,04	8399,74
484,24	8337,69
484,44	8519,96
484,64	8409,57
484,85	8498,66
485,05	8539,62
485,25	8728,85
485,45	8691,17
485,66	8705,92
485,86	8791,93
486,06	8886,34
486,26	8861,56
486,47	8967,65
486,67	9037,48
486,87	9087,25
487,07	9098,72
487,28	9165,07
487,48	9131,69
487,68	9405,71
487,88	9366,79
488,09	9355,12
488,29	9377,03
488,49	9506,06
488,69	9516,09
488,90	9573,43
489,10	9499,30
489,30	9508,31
489,50	9674,81
489,71	9700,82
489,91	9870,80
490,11	9767,79
490,31	9888,00
490,52	9867,93
490,72	9937,56
490,92	10110,00
491,12	10128,43
491,32	10101,20
491,53	10224,69
491,73	10180,25
491,93	10245,37
492,13	10336,51
492,33	10312,55
492,54	10250,70
492,74	10457,95
492,94	10487,03
493,14	10530,04
493,35	10473,11
493,55	10588,82
493,75	10677,29
493,95	10591,89
494,15	10636,54
494,36	10740,78
494,56	10727,06
494,76	10823,72
494,96	10839,69
495,16	10870,82
495,37	10902,57
495,57	10936,97
495,77	10986,74
495,97	10972,61
496,17	11135,63
496,37	11137,06
496,58	11132,96
496,78	11091,59
496,98	11238,84
497,18	11287,58
497,38	11205,05
497,59	11246,42
497,79	11409,64
497,99	11261,58
498,19	11416,40
498,39	11409,23
498,59	11521,26
498,80	11425,00
499,00	11497,50
499,20	11488,90
499,40	11525,97
499,60	11567,95
499,80	11607,48
500,01	11695,95
500,21	11584,54
500,41	11604,41
500,61	11718,27
500,81	11718,89
501,01	11740,19
501,22	11889,28
501,42	11782,99
501,62	11694,11
501,82	11889,48
502,02	11782,58
502,22	11677,52
502,42	11804,90
502,63	11905,25
502,83	11785,86
503,03	11841,97
503,23	11831,93
503,43	11840,74
503,63	11719,30
503,83	11927,37
504,04	11778,07
504,24	11842,99
504,44	11803,26
504,64	11873,92
504,84	11848,32
505,04	11758,21
505,24	11905,66
505,44	11955,02
505,65	11878,22
505,85	11957,27
506,05	11990,45
506,25	11942,32
506,45	11811,45
506,65	11881,29
506,85	11971,40
507,05	11997,41
507,26	12023,62
507,46	11992,50
507,66	12112,10
507,86	11980,82
508,06	12141,79
508,26	12026,29
508,46	12247,26
508,66	12154,49
508,86	12277,98
509,06	12400,25
509,27	12358,26
509,47	12268,97
509,67	12352,53
509,87	12382,84
510,07	12483,80
510,27	12525,38
510,47	12507,35
510,67	12582,31
510,87	12530,70
511,07	12681,84
511,28	12749,02
511,48	12556,71
511,68	12775,84
511,88	12805,95
512,08	12790,79
512,28	12811,68
512,48	12778,71
512,68	12877,63
512,88	12905,48
513,08	12969,58
513,28	13024,06
513,48	13038,80
513,68	13083,45
513,89	13002,76
514,09	13091,85
514,29	13357,06
514,49	13192,20
514,69	13178,27
514,89	13333,30
515,09	13375,90
515,29	13407,03
515,49	13340,06
515,69	13436,31
515,89	13529,29
516,09	13631,48
516,29	13684,94
516,49	13711,36
516,69	13757,23
516,89	13706,03
517,09	13722,62
517,29	13866,80
517,50	14011,59
517,70	13888,71
517,90	13902,43
518,10	13833,00
518,30	14176,65
518,50	13991,11
518,70	14183,62
518,90	14327,18
519,10	14459,27
519,30	14445,14
519,50	14414,83
519,70	14538,53
519,90	14496,34
520,10	14665,71
520,30	14697,25
520,50	14676,77
520,70	14815,42
520,90	14758,69
521,10	14879,72
521,30	14904,71
521,50	15053,39
521,70	15091,28
521,90	15094,96
522,10	15345,43
522,30	15070,18
522,50	15326,79
522,70	15153,33
522,90	15290,54
523,10	15294,64
523,30	15573,78
523,50	15447,42
523,70	15614,74
523,90	15554,73
524,10	15678,02
524,30	15505,58
524,50	15655,49
524,70	15737,41
524,90	15816,05
525,10	15935,04
525,30	15868,07
525,50	16096,01
525,70	16055,46
525,90	15943,23
526,10	16029,25
526,30	16224,83
526,50	16226,67
526,70	16238,55
526,90	16294,87
527,10	16197,79
527,30	16416,31
527,50	16426,76
527,70	16478,57
527,90	16411,60
528,10	16496,18
528,30	16533,25
528,50	16526,08
528,70	16569,09
528,90	16715,11
529,10	16690,74
529,30	16639,54
529,50	16818,33
529,70	16705,90
529,90	16893,49
530,10	16964,35
530,29	16904,55
530,49	16946,12
530,69	17084,36
530,89	17091,12
531,09	17100,13
531,29	16971,93
531,49	17080,06
531,69	17141,70
531,89	17063,27
532,09	17152,15
532,29	17132,08
532,49	17223,42
532,69	17198,43
532,89	17263,15
533,09	17385,00
533,29	17406,92
533,49	17298,99
533,68	17436,82
533,88	17621,75
534,08	17582,43
534,28	17389,10
534,48	17419,00
534,68	17550,27
534,88	17392,78
535,08	17613,96
535,28	17550,48
535,48	17581,40
535,68	17605,98
535,88	17628,91
536,08	17766,95
536,27	17758,55
536,47	17668,24
536,67	17925,46
536,87	17922,80
537,07	17714,52
537,27	17904,78
537,47	17941,84
537,67	17776,16
537,87	17952,49
538,07	18078,44
538,27	17940,41
538,46	18093,60
538,66	17946,35
538,86	17795,62
539,06	18111,01
539,26	18012,50
539,46	18058,99
539,66	18091,35
539,86	18075,37
540,06	18231,43
540,25	18048,75
540,45	18150,74
540,65	18145,41
540,85	18273,41
541,05	18260,92
541,25	18273,41
541,45	18235,73
541,65	18189,03
541,85	18381,13
542,04	18207,06
542,24	18237,37
542,44	18415,54
542,64	18464,49
542,84	18369,05
543,04	18397,93
543,24	18339,97
543,43	18500,94
543,63	18468,58
543,83	18349,80
544,03	18388,71
544,23	18445,03
544,43	18494,80
544,63	18464,69
544,82	18677,48
545,02	18556,85
545,22	18721,92
545,42	18382,98
545,62	18783,56
545,82	18750,38
546,02	18615,22
546,21	18670,10
546,41	18647,17
546,61	18405,91
546,81	18742,81
547,01	18591,46
547,21	18701,03
547,40	18590,23
547,60	18687,92
547,80	18557,05
548,00	18862,61
548,20	18698,16
548,40	18704,92
548,59	18779,67
548,79	18772,91
548,99	18732,97
549,19	18623,00
549,39	18851,76
549,59	18844,59
549,78	18754,68
549,98	18778,44
550,18	18708,40
550,38	18792,37
550,58	18828,41
550,77	18867,94
550,97	18845,82
551,17	18665,60
551,37	18914,42
551,57	18898,45
551,76	18749,77
551,96	18832,92
552,16	18675,43
552,36	18941,87
552,56	18809,57
552,75	18944,73
552,95	18909,71
553,15	18947,60
553,35	19037,51
553,55	18781,51
553,74	19003,10
553,94	18831,69
554,14	18815,71
554,34	18853,81
554,54	18959,89
554,73	19104,27
554,93	19037,30
555,13	19017,44
555,33	19045,29
555,53	19134,17
555,72	18915,86
555,92	19024,61
556,12	19092,60
556,32	18943,51
556,51	19067,41
556,71	19209,54
556,91	18970,74
557,11	19020,30
557,30	19160,18
557,50	19057,99
557,70	19054,71
557,90	19249,47
558,10	19134,79
558,29	19037,71
558,49	19200,73
558,69	19196,23
558,89	19103,04
559,08	19162,84
559,28	19331,19
559,48	19181,48
559,68	19206,26
559,87	19319,92
560,07	19165,30
560,27	19284,90
560,47	19207,08
560,66	19282,04
560,86	19262,78
561,06	19160,80
561,25	19318,28
561,45	19303,54
561,65	19461,64
561,85	19263,19
562,04	19219,57
562,24	19348,80
562,44	19403,28
562,64	19238,82
562,83	19294,53
563,03	19251,73
563,23	19370,30
563,42	19296,99
563,62	19480,07
563,82	19271,59
564,02	19518,58
564,21	19424,98
564,41	19419,86
564,61	19506,70
564,80	19470,04
565,00	19369,89
565,20	19458,37
565,40	19461,64
565,59	19544,99
565,79	19516,73
565,99	19600,70
566,18	19588,62
566,38	19565,68
566,58	19561,58
566,78	19463,28
566,97	19574,69
567,17	19646,16
567,37	19709,45
567,56	19691,22
567,76	19762,08
567,96	19857,51
568,15	19601,72
568,35	19735,05
568,55	19826,39
568,74	19617,29
568,94	19766,79
569,14	19810,00
569,33	19782,15
569,53	19719,89
569,73	19866,12
569,92	19714,57
570,12	19779,90
570,32	19944,55
570,52	19756,55
570,71	19885,37
570,91	19668,49
571,11	19960,12
571,30	19831,51
571,50	19969,33
571,70	19949,06
571,89	19797,30
572,09	19971,79
572,28	19938,41
572,48	19991,25
572,68	19913,42
572,87	20079,31
573,07	20189,70
573,27	19915,06
573,46	20081,56
573,66	20188,26
573,86	20081,97
574,05	20270,79
574,25	20177,61
574,45	20106,55
574,64	20229,02
574,84	20246,42
575,04	20250,93
575,23	20244,99
575,43	20426,44
575,62	20389,58
575,82	20196,66
576,02	20184,37
576,21	20288,41
576,41	20398,59
576,61	20356,60
576,80	20350,26
577,00	20352,92
577,19	20350,87
577,39	20538,67
577,59	20446,92
577,78	20556,49
577,98	20538,05
578,18	20398,18
578,37	20547,48
578,57	20670,15
578,76	20483,99
578,96	20418,66
579,16	20567,55
579,35	20713,98
579,55	20534,78
579,74	20436,88
579,94	20525,56
580,14	20801,83
580,33	20755,75
580,53	20821,08
580,72	20760,46
580,92	20887,23
581,12	20706,81
581,31	20768,04
581,51	20857,33
581,70	20795,48
581,90	20939,46
582,10	20692,47
582,29	20942,12
582,49	20900,34
582,68	21008,88
582,88	21010,11
583,07	20984,31
583,27	20962,80
583,47	21030,59
583,66	21020,76
583,86	20888,26
584,05	21035,51
584,25	21015,23
584,44	21025,47
584,64	21084,86
584,84	21110,46
585,03	21094,49
585,23	21037,35
585,42	21172,52
585,62	21003,56
585,81	21284,95
586,01	21189,51
586,20	21308,30
586,40	21321,20
586,60	21104,11
586,79	21215,11
586,99	21263,45
587,18	21289,25
587,38	21283,11
587,57	21223,30
587,77	21365,64
587,96	21265,49
588,16	21203,85
588,35	21342,70
588,55	21448,38
588,75	21279,42
588,94	21310,96
589,14	21375,88
589,33	21256,48
589,53	21547,50
589,72	21317,10
589,92	21523,95
590,11	21367,48
590,31	21368,51
590,50	21493,02
590,70	21285,15
590,89	21541,76
591,09	21463,53
591,28	21341,47
591,48	21538,08
591,67	21240,10
591,87	21565,73
592,06	21457,59
592,26	21414,38
592,45	21502,24
592,65	21587,02
592,84	21584,16
593,04	21516,98
593,23	21591,53
593,43	21644,37
593,62	21429,33
593,82	21432,40
594,01	21541,56
594,21	21732,23
594,40	21539,51
594,60	21547,70
594,79	21640,89
594,99	21387,96
595,18	21677,95
595,38	21492,82
595,57	21630,65
595,77	21811,48
595,96	21567,77
596,16	21680,82
596,35	21634,33
596,55	21472,54
596,74	21595,01
596,94	21555,49
597,13	21611,80
597,33	21680,41
597,52	21424,42
597,72	21528,66
597,91	21658,91
598,11	21729,97
598,30	21423,80
598,50	21777,69
598,69	21629,21
598,88	21556,30
599,08	21555,90
599,27	21627,98
599,47	21621,23
599,66	21669,15
599,86	21782,20
600,05	21713,18
600,25	21836,47
600,44	21440,18
600,64	21555,08
600,83	21610,78
601,02	21740,01
601,22	21703,14
601,41	21424,83
601,61	21581,70
601,80	21639,25
602,00	21711,34
602,19	21528,04
602,38	21496,50
602,58	21419,91
602,77	21504,90
602,97	21675,09
603,16	21819,06
603,36	21423,39
603,55	21779,12
603,74	21282,08
603,94	21622,66
604,13	21715,23
604,33	21550,37
604,52	21354,58
604,72	21498,96
604,91	21448,99
605,10	21682,66
605,30	21383,87
605,49	21477,05
605,69	21533,98
605,88	21398,61
606,07	21562,04
606,27	21495,07
606,46	21468,04
606,66	21401,89
606,85	21308,50
607,04	21375,67
607,24	21309,32
607,43	21518,62
607,63	21376,90
607,82	21324,68
608,01	21444,69
608,21	21240,10
608,40	21388,58
608,60	21079,95
608,79	21134,42
608,98	21106,37
609,18	21297,24
609,37	21022,19
609,57	20915,90
609,76	21008,06
609,95	21007,65
610,15	21082,61
610,34	21130,12
610,53	21025,88
610,73	20973,04
610,92	21116,81
611,11	21122,14
611,31	20989,63
611,50	21093,46
611,70	20966,90
611,89	21054,55
612,08	21135,86
612,28	21110,46
612,47	21171,49
612,66	21144,46
612,86	21031,21
613,05	21020,97
613,24	21107,19
613,44	21178,45
613,63	21084,86
613,82	21283,92
614,02	21145,89
614,21	20985,33
614,41	21221,87
614,60	21309,52
614,79	20984,31
614,99	21108,21
615,18	21341,68
615,37	21216,34
615,57	21525,59
615,76	21294,37
615,95	21209,17
616,15	21333,28
616,34	21498,14
616,53	21516,37
616,73	21702,53
616,92	21594,40
617,11	21580,68
617,30	21728,95
617,50	21668,12
617,69	21716,05
617,88	21850,19
618,08	21616,51
618,27	21964,67
618,46	22033,28
618,66	21987,61
618,85	22127,89
619,04	22154,31
619,24	22348,87
619,43	22382,66
619,62	22372,63
619,82	22455,77
620,01	22444,10
620,20	22602,61
620,39	22509,84
620,59	22569,43
620,78	22684,74
620,97	22769,11
621,17	22806,79
621,36	23007,29
621,55	22951,18
621,74	23001,97
621,94	22910,63
622,13	23113,99
622,32	23182,39
622,52	23082,86
622,71	23305,47
622,90	23253,25
623,09	23387,39
623,29	23426,92
623,48	23584,61
623,67	23472,59
623,86	23505,97
624,06	23574,37
624,25	23536,28
624,44	23618,20
624,64	23588,71
624,83	23601,20
625,02	23402,55
625,21	23585,43
625,41	23750,29
625,60	23750,50
625,79	23606,12
625,98	23792,48
626,18	24026,15
626,37	23778,97
626,56	23656,91
626,75	23983,76
626,95	23736,37
627,14	23796,17
627,33	23951,61
627,52	23899,80
627,72	23955,30
627,91	23781,42
628,10	24057,28
628,29	23985,40
628,49	23809,28
628,68	23940,35
628,87	23848,19
629,06	24220,10
629,25	23885,66
629,45	23824,02
629,64	23979,05
629,83	24042,33
630,02	23968,40
630,22	23799,65
630,41	24073,87
630,60	23882,18
630,79	23913,93
630,98	23918,43
631,18	23885,25
631,37	23736,98
631,56	24030,66
631,75	24133,26
631,94	23943,62
632,14	23937,07
632,33	23838,97
632,52	23854,94
632,71	23732,48
632,90	23977,00
633,10	23886,69
633,29	23828,73
633,48	23843,07
633,67	23817,88
633,86	23868,26
634,06	23973,32
634,25	23724,08
634,44	23870,30
634,63	23856,38
634,82	23917,61
635,02	23630,90
635,21	23893,65
635,40	23865,59
635,59	23728,79
635,78	23739,85
635,97	23776,30
636,17	23534,44
636,36	23888,33
636,55	23682,92
636,74	23845,32
636,93	23450,06
637,12	23787,98
637,32	23972,70
637,51	23499,21
637,70	23636,22
637,89	23742,51
638,08	23774,25
638,27	23670,83
638,47	23608,98
638,66	23597,52
638,85	23603,45
639,04	23719,78
639,23	23545,70
639,42	23692,54
639,62	23811,12
639,81	23691,31
640,00	23657,73
640,19	23582,56
640,38	23461,73
640,57	23543,04
640,76	23597,72
640,95	23620,25
641,15	23554,51
641,34	23552,87
641,53	23593,01
641,72	23354,63
641,91	23640,93
642,10	23525,84
642,29	23434,50
642,49	23759,30
642,68	23406,44
642,87	23607,96
643,06	23700,32
643,25	23694,18
643,44	23463,99
643,63	23480,78
643,82	23606,53
644,01	23624,34
644,21	23595,67
644,40	23525,84
644,59	23386,57
644,78	23460,51
644,97	23277,42
645,16	23527,88
645,35	23453,54
645,54	23542,63
645,73	23455,59
645,92	23740,67
646,12	23544,27
646,31	23405,62
646,50	23551,85
646,69	23703,19
646,88	23487,54
647,07	23582,56
647,26	23458,66
647,45	23503,10
647,64	23261,24
647,83	23534,64
648,02	23514,57
648,22	23360,36
648,41	23451,09
648,60	23403,98
648,79	23412,79
648,98	23483,44
649,17	23360,97
649,36	23353,40
649,55	23340,29
649,74	23242,19
649,93	23259,19
650,12	23416,47
650,31	23356,26
650,50	23077,13
650,69	23416,07
650,88	23498,60
651,08	23124,84
651,27	23316,74
651,46	23358,72
651,65	23315,51
651,84	23051,73
652,03	23176,86
652,22	23174,81
652,41	23253,25
652,60	23379,82
652,79	23171,33
652,98	23095,76
653,17	23286,22
653,36	23229,29
653,55	23089,82
653,74	23258,17
653,93	23183,21
654,12	22993,98
654,31	23198,78
654,50	23198,78
654,69	23160,07
654,88	23067,71
655,07	23200,82
655,26	22991,73
655,45	23042,11
655,64	23026,54
655,83	22997,26
656,02	22996,64
656,21	22936,02
656,40	22882,77
656,59	23017,94
656,78	22845,91
656,97	22949,33
657,17	23008,31
657,36	22945,03
657,55	22771,98
657,74	22937,66
657,93	22818,26
658,12	22907,55
658,31	22860,45
658,50	22859,43
658,69	22746,79
658,87	22934,38
659,06	22742,28
659,25	22723,24
659,44	22732,25
659,63	22844,68
659,82	22846,32
660,01	22511,27
660,20	22825,84
660,39	22664,46
660,58	22822,36
660,77	22647,87
660,96	22729,18
661,15	22515,37
661,34	22828,71
661,53	22708,70
661,72	22658,32
661,91	22815,81
662,10	22520,69
662,29	22752,11
662,48	22495,50
662,67	22595,24
662,86	22488,13
663,05	22570,87
663,24	22621,25
663,43	22556,33
663,62	22446,15
663,81	22502,26
664,00	22491,61
664,19	22402,53
664,38	22534,21
664,57	22328,59
664,76	22572,92
664,94	22479,94
665,13	22339,86
665,32	22313,85
665,51	22514,55
665,70	22191,79
665,89	22393,31
666,08	22260,81
666,27	22461,71
666,46	22223,53
666,65	22247,29
666,84	22276,37
667,03	22374,06
667,22	22108,44
667,41	22295,83
667,60	22383,48
667,78	22291,73
667,97	22180,12
668,16	22288,04
668,35	22236,23
668,54	21981,67
668,73	22165,17
668,92	22074,24
669,11	22252,61
669,30	22137,11
669,49	21998,87
669,68	21916,13
669,86	22105,37
670,05	22006,45
670,24	21816,60
670,43	21920,23
670,62	21865,75
670,81	22014,64
671,00	21928,22
671,19	21968,15
671,38	21955,86
671,57	21829,91
671,75	21908,76
671,94	21829,71
672,13	21857,56
672,32	21913,68
672,51	21760,49
672,70	21914,49
672,89	21699,87
673,08	21836,47
673,26	21792,64
673,45	21714,61
673,64	21833,19
673,83	21732,43
674,02	21739,39
674,21	21757,82
674,40	21884,59
674,59	21746,56
674,77	21770,73
674,96	21703,55
675,15	21717,07
675,34	21814,76
675,53	21574,53
675,72	21573,10
675,91	21657,47
676,09	21449,20
676,28	21556,92
676,47	21466,40
676,66	21386,12
676,85	21576,78
677,04	21708,26
677,22	21468,04
677,41	21458,21
677,60	21542,99
677,79	21293,96
677,98	21239,69
678,17	21309,32
678,36	21494,05
678,54	21391,44
678,73	21324,88
678,92	21359,09
679,11	21374,24
679,30	21226,99
679,48	21450,63
679,67	21236,62
679,86	21417,04
680,05	21186,65
680,24	21279,62
680,43	21150,81
680,61	21198,32
680,80	21072,57
680,99	21084,86
681,18	21095,92
681,37	21074,62
681,55	21191,77
681,74	21002,53
681,93	21132,99
682,12	21144,25
682,31	21061,93
682,49	20956,25
682,68	20971,40
682,87	21018,30
683,06	21155,52
683,25	20918,16
683,43	21135,04
683,62	20908,53
683,81	21063,56
684,00	21008,88
684,19	20773,37
684,37	20797,53
684,56	20805,11
684,75	20765,99
684,94	20814,53
685,12	20781,35
685,31	20880,88
685,50	20900,75
685,69	20831,94
685,88	20880,88
686,06	20683,26
686,25	20699,84
686,44	20653,97
686,63	20754,12
686,81	20782,17
687,00	20759,85
687,19	20697,39
687,38	20649,87
687,56	20654,99
687,75	20594,99
687,94	20766,61
688,13	20637,18
688,31	20669,74
688,50	20552,39
688,69	20599,90
688,88	20540,31
689,06	20453,47
689,25	20632,47
689,44	20591,51
689,63	20397,97
689,81	20469,86
690,00	20455,32
690,19	20528,84
690,38	20527,41
690,56	20412,31
690,75	20368,28
690,94	20328,55
691,13	20570,82
691,31	20408,42
691,50	20461,26
691,69	20394,08
691,87	20290,66
692,06	20354,97
692,25	20293,32
692,44	20240,48
692,62	20201,57
692,81	20233,93
693,00	20253,80
693,18	20374,83
693,37	20334,28
693,56	20234,55
693,75	20225,33
693,93	20396,34
694,12	20156,11
694,31	20169,01
694,49	20105,32
694,68	20265,06
694,87	20159,79
695,05	20258,92
695,24	20272,84
695,43	20160,00
695,62	20105,93
695,80	20134,81
695,99	20050,84
696,18	19977,12
696,36	20175,77
696,55	20155,70
696,74	20053,30
696,92	19999,64
697,11	19947,01
697,30	20015,62
697,48	19960,73
697,67	20036,51
697,86	19903,59
698,04	19948,65
698,23	19807,95
698,42	19984,28
698,60	19815,94
698,79	19974,45
698,98	19851,37
699,16	19839,70
699,35	19768,02
699,54	19795,05
699,72	19692,24
699,91	20058,83
700,10	19928,99
700,28	19745,49
700,47	19737,71
700,66	19773,75
700,84	19704,12
701,03	19662,55
701,21	19744,47
701,40	20083,20
701,59	19595,17
701,77	19586,98
701,96	19703,92
702,15	19725,01
702,33	19698,80
702,52	19729,31
702,71	19639,41
702,89	19730,95
703,08	19698,59
703,26	19604,59
703,45	19766,38
703,64	19575,51
703,82	19518,99
704,01	19582,88
704,20	19419,25
704,38	19526,36
704,57	19354,12
704,75	19514,89
704,94	19499,12
705,13	19514,48
705,31	19630,80
705,50	19715,80
705,68	19567,52
705,87	19511,20
706,06	19497,89
706,24	19632,03
706,43	19368,66
706,61	19375,63
706,80	19397,13
706,99	19487,86
707,17	19494,00
707,36	19401,23
707,54	19178,20
707,73	19413,51
707,92	19455,09
708,10	19224,08
708,29	19190,90
708,47	19379,31
708,66	19325,86
708,84	19269,13
709,03	19145,23
709,22	19200,94
709,40	19121,47
709,59	19210,36
709,77	19143,59
709,96	19117,58
710,14	19033,21
710,33	19052,25
710,52	19014,16
710,70	19282,24
710,89	18957,84
711,07	18971,36
711,26	19125,37
711,44	18985,90
711,63	18956,20
711,81	18983,24
712,00	19079,29
712,19	18948,01
712,37	18998,39
712,56	18914,02
712,74	18790,93
712,93	18891,49
713,11	18818,17
713,30	18735,02
713,48	18981,80
713,67	18940,23
713,85	18820,22
714,04	18866,91
714,22	18784,38
714,41	18912,17
714,59	18817,56
714,78	18803,83
714,97	18869,98
715,15	18638,15
715,34	18724,58
715,52	18808,14
715,71	18775,78
715,89	18642,05
716,08	18762,06
716,26	18663,96
716,45	18571,39
716,63	18781,72
716,82	18501,14
717,00	18592,48
717,19	18503,81
717,37	18567,91
717,56	18532,89
717,74	18455,68
717,93	18571,19
718,11	18424,55
718,30	18403,66
718,48	18465,92
718,67	18551,52
718,85	18205,83
719,04	18271,16
719,22	18276,48
719,41	18235,52
719,59	18288,57
719,78	18175,93
719,96	18211,36
720,15	18180,64
720,33	18358,20
720,52	17955,98
720,70	18036,26
720,88	18108,34
721,07	18156,47
721,25	18125,96
721,44	18024,58
721,62	17919,11
721,81	18097,70
721,99	17910,92
722,18	17945,12
722,36	17883,68
722,55	17822,24
722,73	17738,28
722,92	17880,20
723,10	17764,49
723,28	17834,12
723,47	17719,84
723,65	17653,49
723,84	17663,32
724,02	17622,16
724,21	17646,73
724,39	17631,37
724,58	17551,50
724,76	17657,79
724,94	17440,71
725,13	17636,08
725,31	17424,12
725,50	17586,73
725,68	17440,91
725,87	17399,13
726,05	17361,86
726,23	17358,17
726,42	17260,69
726,60	17296,53
726,79	17225,47
726,97	17252,29
727,16	17184,92
727,34	17212,77
727,52	17135,15
727,71	17083,13
727,89	17182,46
728,08	17174,27
728,26	17228,95
728,44	17117,95
728,63	17266,83
728,81	16967,22
729,00	17083,75
729,18	17181,02
729,36	17013,91
729,55	17045,45
729,73	17103,61
729,92	17053,44
730,10	16805,22
730,28	17113,65
730,47	16930,15
730,65	16976,02
730,84	16920,73
731,02	16914,38
731,20	16982,17
731,39	16882,64
731,57	16795,60
731,75	17156,24
731,94	16832,05
732,12	16920,52
732,31	16635,85
732,49	16949,19
732,67	16740,92
732,86	16734,77
733,04	16692,99
733,22	16792,52
733,41	16611,07
733,59	16825,91
733,78	16589,78
733,96	16476,11
734,14	16606,57
734,33	16689,72
734,51	16574,42
734,69	16423,69
734,88	16512,57
735,06	16605,95
735,24	16330,91
735,43	16438,23
735,61	16448,88
735,79	16389,28
735,98	16344,22
736,16	16434,13
736,34	16318,42
736,53	16375,76
736,71	16256,16
736,89	16296,71
737,08	16161,34
737,26	16277,67
737,44	16262,72
737,63	16159,50
737,81	16186,12
737,99	16151,10
738,18	16180,80
738,36	16321,49
738,54	16047,27
738,73	16127,34
738,91	16093,55
739,09	16219,71
739,28	15920,50
739,46	15998,53
739,64	16158,47
739,82	15929,51
740,01	15982,14
740,19	16024,33
740,37	15868,69
740,56	15844,72
740,74	15978,46
740,92	15789,84
741,11	15921,73
741,29	16002,01
741,47	15869,91
741,65	15715,91
741,84	15822,20
742,02	15678,22
742,20	15665,32
742,39	15549,61
742,57	15663,48
742,75	15639,52
742,93	15526,47
743,12	15470,15
743,30	15423,05
743,48	15615,35
743,67	15429,81
743,85	15538,35
744,03	15488,58
744,21	15328,64
744,40	15388,44
744,58	15410,76
744,76	15322,08
744,94	15403,18
745,13	15394,99
745,31	15339,29
745,49	15150,46
745,67	15270,06
745,86	15197,77
746,04	15311,02
746,22	15119,33
746,40	15114,01
746,59	15076,74
746,77	15169,10
746,95	15081,45
747,13	15044,38
747,32	14856,78
747,50	14921,91
747,68	14955,50
747,86	14867,23
748,05	14894,47
748,23	14871,94
748,41	14801,08
748,59	14781,83
748,77	14663,87
748,96	14661,00
749,14	14581,74
749,32	14610,82
749,50	14498,80
749,69	14623,73
749,87	14567,61
750,05	14427,94
750,23	14477,30
750,41	14453,33
750,60	14486,10
750,78	14448,21
750,96	14457,23
751,14	14340,70
751,32	14381,04
751,51	14425,69
751,69	14405,21
751,87	14239,12
752,05	14300,15
752,23	14320,83
752,42	14247,31
752,60	14349,91
752,78	14215,57
752,96	14286,83
753,14	14199,59
753,33	14319,60
753,51	14164,98
753,69	14307,93
753,87	14226,62
754,05	14426,10
754,23	14193,65
754,42	14416,47
754,60	14306,70
754,78	14501,05
754,96	14323,08
755,14	14362,61
755,32	14244,03
755,51	14495,32
755,69	14237,89
755,87	14512,93
756,05	14340,49
756,23	14477,30
756,41	14391,49
756,60	14517,23
756,78	14475,25
756,96	14494,29
757,14	14561,67
757,32	14484,46
757,50	14650,35
757,68	14533,62
757,87	14567,00
758,05	14718,14
758,23	14591,98
758,41	14699,09
758,59	14728,38
758,77	14671,85
758,95	14769,13
759,14	14746,60
759,32	14914,95
759,50	15015,50
759,68	14923,55
759,86	15081,65
760,04	15195,11
760,22	14996,66
760,40	15134,49
760,59	15201,05
760,77	15300,78
760,95	15285,83
761,13	15221,12
761,31	15193,06
761,49	15308,36
761,67	15389,26
761,85	15254,30
762,03	15421,61
762,22	15474,45
762,40	15473,22
762,58	15561,29
762,76	15597,33
762,94	15462,16
763,12	15591,60
763,30	15538,76
763,48	15627,03
763,66	15524,83
763,84	15703,41
764,02	15751,13
764,21	15715,50
764,39	15765,26
764,57	15704,44
764,75	15784,92
764,93	15582,18
765,11	15669,21
765,29	15757,07
765,47	15632,56
765,65	15664,50
765,83	15645,66
766,01	15735,77
766,19	15685,60
766,37	15553,91
766,56	15570,30
766,74	15550,23
766,92	15555,76
767,10	15531,79
767,28	15495,55
767,46	15479,78
767,64	15513,16
767,82	15534,25
768,00	15448,03
768,18	15442,09
768,36	15440,46
768,54	15332,53
768,72	15304,27
768,90	15323,31
769,08	15277,03
769,26	15062,20
769,44	15196,75
769,62	15183,85
769,80	14987,04
769,98	15119,74
770,16	15013,04
770,34	14907,37
770,52	14863,95
770,71	14874,19
770,89	14824,02
771,07	14887,50
771,25	14658,75
771,43	14707,90
771,61	14685,37
771,79	14621,27
771,97	14496,34
772,15	14518,26
772,33	14454,36
772,51	14394,56
772,69	14471,77
772,87	14263,49
773,05	14243,42
773,23	14337,42
773,41	14148,19
773,59	14121,15
773,77	14127,30
773,95	14177,06
774,13	13932,54
774,31	13973,29
774,49	13850,41
774,67	13785,08
774,85	13728,15
775,03	13659,13
775,21	13615,51
775,39	13677,36
775,57	13525,40
775,75	13497,14
775,93	13431,40
776,10	13353,99
776,28	13215,34
776,46	13339,24
776,64	13220,25
776,82	13214,72
777,00	13220,25
777,18	13062,56
777,36	12951,97
777,54	13166,80
777,72	12919,82
777,90	12867,59
778,08	12862,47
778,26	12702,32
778,44	12734,06
778,62	12696,18
778,80	12598,69
778,98	12588,04
779,16	12513,70
779,34	12435,47
779,52	12331,84
779,70	12324,27
779,88	12307,47
780,05	12295,39
780,23	12147,32
780,41	12259,76
780,59	12155,72
780,77	12102,47
780,95	12056,60
781,13	12121,72
781,31	11960,55
781,49	11905,87
781,67	11879,45
781,85	11936,59
782,03	11795,89
782,21	11822,72
782,39	11773,36
782,56	11671,99
782,74	11630,21
782,92	11594,17
783,10	11543,58
783,28	11437,29
783,46	11514,09
783,64	11485,42
783,82	11382,00
784,00	11346,98
784,18	11343,29
784,35	11320,56
784,53	11270,59
784,71	11256,25
784,89	11181,50
785,07	11179,25
785,25	11173,72
785,43	11075,21
785,61	10961,34
785,79	11048,18
785,96	10907,28
786,14	10983,05
786,32	10890,07
786,50	10918,95
786,68	10778,46
786,86	10766,99
787,04	10703,50
787,22	10719,48
787,39	10642,06
787,57	10688,96
787,75	10577,55
787,93	10595,37
788,11	10576,94
788,29	10559,33
788,47	10392,21
788,65	10425,59
788,82	10370,09
789,00	10376,65
789,18	10385,66
789,36	10421,29
789,54	10230,63
789,72	10253,77
789,89	10283,47
790,07	10148,30
790,25	10144,41
790,43	10073,55
790,61	10071,71
790,79	10049,38
790,96	10052,45
791,14	9995,52
791,32	9881,86
791,50	9987,12
791,68	9812,02
791,86	9836,39
792,03	9753,86
792,21	9865,27
792,39	9771,47
792,57	9827,18
792,75	9661,29
792,93	9694,67
793,10	9588,59
793,28	9635,69
793,46	9656,99
793,64	9665,18
793,82	9541,08
793,99	9552,14
794,17	9435,20
794,35	9537,80
794,53	9433,97
794,71	9390,35
794,88	9358,81
795,06	9346,72
795,24	9297,78
795,42	9314,98
795,60	9288,97
795,77	9237,16
795,95	9218,93
796,13	9095,03
796,31	9158,52
796,49	9179,41
796,66	9071,27
796,84	9019,66
797,02	9033,59
797,20	9054,27
797,37	9017,00
797,55	8984,44
797,73	8964,98
797,91	9025,19
798,08	8922,80
798,26	8968,46
798,44	8850,09
798,62	8776,37
798,80	8827,97
798,97	8774,52
799,15	8670,89
799,33	8702,84
799,51	8729,67
799,68	8703,46
799,86	8758,96
800,04	8668,85
800,22	8500,71
800,39	8554,16
800,57	8490,88
800,75	8505,21
800,93	8450,53
801,10	8502,55
801,28	8415,10
801,46	8302,67
801,63	8439,06
801,81	8419,81
801,99	8320,28
802,17	8372,71
802,34	8261,51
802,52	8251,27
802,70	8245,94
802,88	8237,54
803,05	8251,27
803,23	8120,40
803,41	8213,17
803,58	8083,54
803,76	8120,20
803,94	8098,90
804,12	8221,37
804,29	8116,71
804,47	8143,95
804,65	7994,45
804,82	7849,05
805,00	8022,10
805,18	7957,79
805,35	7968,85
805,53	7850,89
805,71	7885,70
805,89	7925,02
806,06	7819,35
806,24	7805,01
806,42	7852,53
806,59	7814,02
806,77	7870,55
806,95	7810,34
807,12	7725,35
807,30	7738,86
807,48	7660,02
807,65	7652,24
807,83	7682,34
808,01	7626,64
808,18	7591,82
808,36	7492,49
808,54	7539,80
808,71	7462,18
808,89	7489,63
809,07	7443,55
809,24	7483,28
809,42	7506,62
809,60	7422,86
809,77	7404,84
809,95	7356,30
810,13	7337,67
810,30	7328,45
810,48	7373,92
810,66	7309,20
810,83	7315,75
811,01	7335,21
811,18	7197,79
811,36	7328,86
811,54	7235,06
811,71	7251,65
811,89	7248,38
812,07	7134,71
812,24	7196,97
812,42	7146,18
812,59	7126,52
812,77	7099,08
812,95	7182,23
813,12	7059,76
813,30	7101,54
813,48	7047,27
813,65	7031,09
813,83	6955,93
814,00	6998,32
814,18	6970,06
814,36	6951,22
814,53	6932,17
814,71	6965,76
814,88	6831,82
815,06	6906,16
815,24	6868,68
815,41	6889,57
815,59	6864,38
815,76	6773,04
815,94	6771,40
816,12	6774,07
816,29	6778,98
816,47	6686,00
816,64	6743,76
816,82	6693,58
817,00	6666,75
817,17	6680,68
817,35	6682,73
817,52	6602,65
817,70	6657,54
817,87	6650,57
818,05	6623,13
818,23	6486,33
818,40	6520,94
818,58	6493,08
818,75	6508,85
818,93	6570,70
819,10	6597,74
819,28	6508,24
819,46	6454,99
819,63	6443,32
819,81	6415,67
819,98	6418,54
820,16	6386,59
820,33	6339,28
820,51	6357,71
820,68	6336,42
820,86	6310,82
821,03	6272,11
821,21	6204,32
821,39	6255,93
821,56	6292,38
821,74	6228,69
821,91	6173,19
822,09	6220,50
822,26	6207,80
822,44	6131,41
822,61	6171,35
822,79	6099,47
822,96	6112,98
823,14	6109,30
823,31	6076,12
823,49	6042,74
823,66	6018,16
823,84	5990,10
824,01	5994,61
824,19	5947,10
824,36	6029,22
824,54	5963,89
824,71	5939,31
824,89	5920,88
825,06	5842,85
825,24	5870,50
825,41	5890,16
825,59	5816,03
825,76	5830,98
825,94	5802,71
826,11	5752,13
826,29	5816,44
826,46	5728,58
826,64	5720,80
826,81	5743,12
826,99	5719,98
827,16	5762,57
827,34	5670,62
827,51	5575,80
827,69	5611,02
827,86	5571,70
828,04	5613,48
828,21	5630,69
828,39	5546,51
828,56	5631,71
828,74	5495,31
828,91	5503,51
829,09	5522,55
829,26	5455,17
829,43	5476,06
829,61	5448,21
829,78	5367,93
829,96	5427,73
830,13	5386,57
830,31	5365,06
830,48	5393,33
830,66	5362,40
830,83	5358,92
831,01	5374,48
831,18	5333,12
831,35	5347,86
831,53	5307,52
831,70	5319,39
831,88	5260,00
832,05	5261,03
832,23	5245,05
832,40	5224,16
832,57	5234,81
832,75	5221,50
832,92	5125,04
833,10	5214,95
833,27	5146,55
833,45	5144,09
833,62	5106,61
833,79	5141,63
833,97	5095,76
834,14	5103,54
834,32	5104,15
834,49	5020,60
834,66	5097,39
834,84	5002,37
835,01	5039,85
835,19	5061,15
835,36	4958,54
835,53	4956,08
835,71	4977,59
835,88	4961,20
836,06	4889,73
836,23	4959,36
836,40	4944,62
836,58	4954,86
836,75	4880,72
836,93	4885,84
837,10	4830,34
837,27	4854,91
837,45	4851,64
837,62	4736,54
837,79	4804,13
837,97	4819,48
838,14	4738,79
838,32	4842,01
838,49	4738,39
838,66	4740,43
838,84	4722,41
839,01	4661,79
839,18	4668,14
839,36	4710,12
839,53	4662,82
839,70	4651,96
839,88	4587,65
840,05	4636,40
840,23	4569,63
840,40	4555,50
840,57	4529,49
840,75	4599,33
840,92	4542,19
841,09	4514,13
841,27	4576,60
841,44	4538,71
841,61	4544,24
841,79	4543,01
841,96	4497,54
842,13	4462,52
842,31	4502,87
842,48	4433,65
842,65	4412,35
842,83	4413,17
843,00	4364,22
843,17	4427,50
843,35	4353,78
843,52	4363,61
843,69	4300,32
843,86	4360,94
844,04	4301,96
844,21	4316,71
844,38	4360,74
844,56	4306,67
844,73	4227,42
844,90	4295,20
845,08	4202,02
845,25	4272,88
845,42	4201,00
845,60	4223,94
845,77	4159,63
845,94	4169,25
846,11	4163,52
846,29	4140,38
846,46	4129,52
846,63	4139,35
846,81	4157,38
846,98	4074,84
847,15	4114,37
847,32	4130,14
847,50	4031,63
847,67	4110,07
847,84	4058,46
848,01	4011,77
848,19	4001,94
848,36	4007,26
848,53	3975,93
848,71	3994,77
848,88	3948,48
849,05	3998,86
849,22	3982,89
849,40	3946,64
849,57	3942,14
849,74	3961,80
849,91	3919,61
850,09	3920,22
850,26	3891,76
850,43	3910,19
850,60	3810,45
850,78	3887,04
850,95	3803,08
851,12	3819,26
851,29	3831,34
851,47	3762,94
851,64	3790,59
851,81	3749,01
851,98	3743,28
852,15	3763,76
852,33	3746,14
852,50	3765,60
852,67	3735,09
852,84	3726,07
853,02	3694,54
853,19	3655,62
853,36	3633,71
853,53	3688,39
853,70	3651,53
853,88	3659,52
854,05	3617,94
854,22	3601,76
854,39	3609,95
854,56	3616,71
854,74	3580,26
854,91	3580,67
855,08	3572,07
855,25	3493,02
855,42	3469,67
855,60	3532,95
855,77	3507,35
855,94	3508,99
856,11	3491,38
856,28	3546,67
856,46	3484,00
856,63	3483,59
856,80	3435,47
856,97	3437,93
857,14	3410,48
857,31	3351,91
857,49	3426,87
857,66	3444,89
857,83	3311,36
858,00	3396,97
858,17	3352,52
858,34	3319,55
858,52	3374,03
858,69	3323,85
858,86	3339,21
859,03	3324,67
859,20	3286,38
859,37	3304,19
859,55	3216,33
859,72	3262,41
859,89	3254,63
860,06	3234,56
860,23	3259,34
860,40	3228,01
860,57	3203,64
860,75	3196,47
860,92	3185,62
861,09	3168,00
861,26	3210,81
861,43	3120,69
861,60	3143,22
861,77	3165,95
861,95	3122,54
862,12	3146,09
862,29	3101,85
862,46	3119,67
862,63	3087,52
862,80	3080,14
862,97	3046,97
863,14	3042,46
863,31	3033,25
863,49	3040,21
863,66	3019,73
863,83	3015,63
864,00	2983,07
864,17	3000,27
864,34	2992,49
864,51	3016,04
864,68	2971,19
864,85	2991,47
865,02	2958,50
865,20	2974,47
865,37	2882,11
865,54	2897,88
865,71	2903,41
865,88	2932,90
866,05	2882,93
866,22	2936,38
866,39	2877,19
866,56	2830,70
866,73	2838,28
866,90	2818,41
867,07	2827,63
867,25	2835,62
867,42	2806,95
867,59	2820,87
867,76	2769,06
867,93	2787,08
868,10	2754,11
868,27	2786,26
868,44	2767,62
868,61	2746,53
868,78	2718,06
868,95	2732,20
869,12	2734,65
869,29	2714,58
869,46	2720,73
869,63	2647,00
869,80	2654,17
869,97	2660,72
870,14	2664,41
870,32	2662,56
870,49	2631,23
870,66	2614,85
870,83	2602,97
871,00	2611,98
871,17	2531,29
871,34	2582,08
871,51	2537,02
871,68	2574,71
871,85	2528,83
872,02	2505,08
872,19	2542,35
872,36	2542,76
872,53	2523,51
872,70	2501,18
872,87	2480,70
873,04	2461,25
873,21	2486,85
873,38	2435,03
873,55	2409,23
873,72	2417,63
873,89	2428,69
874,06	2427,25
874,23	2392,23
874,40	2407,39
874,57	2399,20
874,74	2375,03
874,91	2364,38
875,08	2331,61
875,25	2364,99
875,42	2329,15
875,59	2319,32
875,76	2337,55
875,93	2297,00
876,10	2268,94
876,27	2284,30
876,44	2258,50
876,61	2224,09
876,78	2255,63
876,95	2231,26
877,12	2277,34
877,29	2238,63
877,46	2220,20
877,62	2206,48
877,79	2215,70
877,96	2163,06
878,13	2186,82
878,30	2199,72
878,47	2172,89
878,64	2138,08
878,81	2140,74
878,98	2145,25
879,15	2173,92
879,32	2113,50
879,49	2119,24
879,66	2128,66
879,83	2098,96
880,00	2132,75
880,17	2132,14
880,34	2033,43
880,51	2105,11
880,67	2113,09
880,84	2041,62
881,01	2065,58
881,18	2043,05
881,35	2042,23
881,52	2045,51
881,69	1996,36
881,86	2032,81
882,03	2006,19
882,20	2038,55
882,37	1993,90
882,54	1993,49
882,70	1977,11
882,87	1986,53
883,04	1990,63
883,21	1941,88
883,38	1943,32
883,55	1944,55
883,72	1932,67
883,89	1927,14
884,06	1909,12
884,23	1935,13
884,39	1875,94
884,56	1920,79
884,73	1870,61
884,90	1901,54
885,07	1910,35
885,24	1859,76
885,41	1865,49
885,58	1933,69
885,74	1839,08
885,91	1852,39
886,08	1859,97
886,25	1813,27
886,42	1821,67
886,59	1803,24
886,76	1815,52
886,93	1803,03
887,09	1819,42
887,26	1808,36
887,43	1779,28
887,60	1808,36
887,77	1761,05
887,94	1736,68
888,10	1761,05
888,27	1728,49
888,44	1780,91
888,61	1778,66
888,78	1720,29
888,95	1744,46
889,12	1754,70
889,28	1741,59
889,45	1737,50
889,62	1717,02
889,79	1717,02
889,96	1736,47
890,13	1692,03
890,29	1652,92
890,46	1661,52
890,63	1690,19
890,80	1657,83
890,97	1655,58
891,13	1642,27
891,30	1623,02
891,47	1641,04
891,64	1646,77
891,81	1600,69
891,98	1610,32
892,14	1611,34
892,31	1631,41
892,48	1613,18
892,65	1579,60
892,82	1570,38
892,98	1566,49
893,15	1571,20
893,32	1568,54
>>>>>End Processed Spectral Data<<<<<
