SpectraSuite Datei
++++++++++++++++++++++++++++++++++++
Datum: Tue Dec 10 14:56:40 CET 2019
Benutzer: Lichtquellen1
Dark-Spektrum vorhanden: Ja
Referenz-Spektrum vorhanden: Nein
Zahl der probierten Teilspektren: 1
Spektrometer: USB4F05832
Integrationszeit (usec): 100000 (USB4F05832)
Spektren Durchschnitt berechnet: 10 (USB4F05832)
Boxcar Glättung: 0 (USB4F05832)
Dunkelstromkorrektur: Nein (USB4F05832)
Puls/Lampe aktiviert: Nein (USB4F05832)
Correct for Detector Non-linearity: Nein (USB4F05832)
Streulichtkorrektur: Nein (USB4F05832)
Anzahl Pixel in verarbeitetem Spektrum: 3648
>>>>>Begin Processed Spectral Data<<<<<
177,54	44,65
177,75	44,65
177,97	44,65
178,19	-21,71
178,41	11,47
178,63	5,32
178,85	3,69
179,07	-5,12
179,29	23,14
179,51	4,30
179,73	40,55
179,95	-6,96
180,17	29,90
180,39	33,79
180,61	36,45
180,83	24,99
181,05	-39,73
181,27	13,93
181,49	49,15
181,71	44,44
181,92	55,50
182,14	86,01
182,36	72,09
182,58	94,82
182,80	36,86
183,02	104,65
183,24	54,27
183,46	53,04
183,68	73,32
183,90	75,16
184,12	61,85
184,34	88,88
184,56	77,41
184,78	66,76
185,00	59,39
185,21	83,56
185,43	55,50
185,65	88,47
185,87	82,53
186,09	81,10
186,31	70,45
186,53	59,39
186,75	86,83
186,97	67,79
187,19	62,05
187,41	24,37
187,63	75,57
187,84	75,77
188,06	69,84
188,28	49,36
188,50	91,13
188,72	56,93
188,94	52,63
189,16	74,55
189,38	70,65
189,60	79,67
189,82	75,98
190,03	53,25
190,25	63,28
190,47	84,38
190,69	39,53
190,91	59,80
191,13	92,36
191,35	93,59
191,57	69,63
191,79	52,43
192,01	56,52
192,22	88,47
192,44	49,56
192,66	48,54
192,88	73,73
193,10	75,37
193,32	72,09
193,54	74,96
193,76	56,52
193,98	66,56
194,19	56,93
194,41	86,63
194,63	44,24
194,85	69,22
195,07	90,93
195,29	76,39
195,51	89,91
195,73	83,15
195,94	68,61
196,16	71,88
196,38	79,26
196,60	55,30
196,82	73,93
197,04	68,61
197,26	92,98
197,48	59,19
197,69	83,76
197,91	67,79
198,13	51,61
198,35	64,72
198,57	63,69
198,79	49,15
199,01	68,20
199,22	82,53
199,44	72,50
199,66	67,58
199,88	62,67
200,10	72,29
200,32	65,74
200,54	52,84
200,75	72,91
200,97	99,12
201,19	59,39
201,41	72,70
201,63	60,82
201,85	89,50
202,06	60,62
202,28	69,22
202,50	47,10
202,72	31,33
202,94	49,97
203,16	64,10
203,38	64,31
203,59	71,88
203,81	96,05
204,03	63,49
204,25	88,47
204,47	73,52
204,69	82,33
204,90	61,03
205,12	57,96
205,34	68,40
205,56	71,47
205,78	46,69
206,00	54,89
206,21	85,61
206,43	81,10
206,65	53,45
206,87	65,33
207,09	61,85
207,30	90,32
207,52	73,32
207,74	59,60
207,96	74,75
208,18	62,67
208,40	94,82
208,61	93,18
208,83	58,16
209,05	69,63
209,27	61,44
209,49	68,40
209,70	67,38
209,92	86,01
210,14	79,87
210,36	89,29
210,58	99,33
210,79	69,63
211,01	58,37
211,23	108,95
211,45	78,23
211,67	56,11
211,88	41,57
212,10	77,41
212,32	60,82
212,54	85,40
212,76	64,72
212,97	76,39
213,19	72,29
213,41	84,99
213,63	70,65
213,85	39,12
214,06	75,77
214,28	70,86
214,50	72,70
214,72	78,64
214,94	50,99
215,15	94,00
215,37	66,35
215,59	81,92
215,81	94,62
216,02	52,43
216,24	53,04
216,46	71,27
216,68	76,59
216,90	62,26
217,11	72,09
217,33	86,83
217,55	79,87
217,77	79,67
217,98	74,34
218,20	84,99
218,42	72,91
218,64	72,91
218,85	75,98
219,07	62,05
219,29	84,38
219,51	95,84
219,73	71,47
219,94	66,15
220,16	111,41
220,38	87,86
220,60	69,02
220,81	73,73
221,03	85,61
221,25	71,06
221,47	84,58
221,68	79,46
221,90	94,21
222,12	87,65
222,34	98,92
222,55	73,93
222,77	38,09
222,99	55,50
223,21	47,72
223,42	83,15
223,64	30,51
223,86	49,15
224,08	89,91
224,29	92,98
224,51	86,63
224,73	83,76
224,94	51,20
225,16	95,03
225,38	97,89
225,60	38,91
225,81	60,01
226,03	57,34
226,25	67,38
226,47	59,60
226,68	73,11
226,90	87,86
227,12	92,57
227,33	63,90
227,55	78,23
227,77	87,04
227,99	64,10
228,20	67,99
228,42	89,29
228,64	64,51
228,86	82,53
229,07	100,56
229,29	65,33
229,51	55,50
229,72	44,24
229,94	75,77
230,16	97,69
230,38	62,67
230,59	109,16
230,81	45,67
231,03	72,09
231,24	43,01
231,46	91,13
231,68	70,25
231,89	84,99
232,11	85,81
232,33	96,87
232,55	92,16
232,76	80,89
232,98	90,11
233,20	65,74
233,41	60,62
233,63	75,98
233,85	75,77
234,06	85,61
234,28	90,93
234,50	73,11
234,71	59,39
234,93	61,23
235,15	53,66
235,37	78,64
235,58	77,62
235,80	61,85
236,02	110,18
236,23	64,31
236,45	83,56
236,67	59,39
236,88	66,35
237,10	73,73
237,32	84,38
237,53	93,18
237,75	52,43
237,97	67,58
238,18	127,79
238,40	99,94
238,62	102,60
238,83	60,62
239,05	83,15
239,27	82,94
239,48	96,25
239,70	77,62
239,92	94,21
240,13	80,69
240,35	81,71
240,57	112,84
240,78	72,70
241,00	76,80
241,22	93,39
241,43	93,18
241,65	50,18
241,87	79,26
242,08	78,85
242,30	62,67
242,52	94,62
242,73	89,50
242,95	78,64
243,16	77,62
243,38	50,79
243,60	124,72
243,81	111,82
244,03	88,27
244,25	97,48
244,46	67,58
244,68	77,62
244,90	90,32
245,11	79,46
245,33	103,22
245,55	95,64
245,76	81,71
245,98	78,85
246,19	91,13
246,41	49,56
246,63	87,86
246,84	64,10
247,06	94,62
247,28	89,50
247,49	72,29
247,71	74,34
247,92	63,90
248,14	60,21
248,36	107,11
248,57	107,31
248,79	78,85
249,01	76,59
249,22	63,08
249,44	89,29
249,65	88,27
249,87	99,53
250,09	57,75
250,30	66,56
250,52	76,18
250,73	57,55
250,95	77,62
251,17	71,88
251,38	64,51
251,60	85,81
251,81	93,39
252,03	77,62
252,25	76,18
252,46	82,12
252,68	79,05
252,89	78,85
253,11	75,37
253,33	115,71
253,54	92,98
253,76	93,18
253,97	96,25
254,19	76,80
254,41	99,33
254,62	86,63
254,84	80,89
255,05	70,86
255,27	104,04
255,49	72,09
255,70	89,50
255,92	56,73
256,13	68,40
256,35	93,80
256,56	92,57
256,78	73,11
257,00	73,11
257,21	87,04
257,43	116,73
257,64	89,50
257,86	73,11
258,08	84,38
258,29	77,21
258,51	89,09
258,72	98,71
258,94	47,72
259,15	70,25
259,37	76,39
259,59	99,94
259,80	75,57
260,02	75,57
260,23	70,86
260,45	69,84
260,66	72,70
260,88	86,63
261,09	98,30
261,31	104,04
261,53	94,21
261,74	63,08
261,96	88,88
262,17	52,22
262,39	83,35
262,60	93,39
262,82	83,35
263,03	122,26
263,25	100,56
263,46	96,66
263,68	74,34
263,90	90,73
264,11	74,75
264,33	75,37
264,54	88,88
264,76	94,00
264,97	113,25
265,19	75,37
265,40	95,23
265,62	88,88
265,83	83,97
266,05	86,01
266,26	75,16
266,48	69,43
266,70	130,25
266,91	86,83
267,13	80,69
267,34	97,69
267,56	64,92
267,77	115,30
267,99	81,30
268,20	73,93
268,42	87,65
268,63	102,19
268,85	83,97
269,06	74,96
269,28	98,30
269,49	72,50
269,71	96,05
269,92	79,26
270,14	92,57
270,35	66,35
270,57	62,26
270,78	108,34
271,00	79,67
271,21	76,80
271,43	78,03
271,64	78,64
271,86	107,52
272,07	96,87
272,29	69,22
272,50	71,47
272,72	102,60
272,93	75,37
273,15	108,34
273,36	99,74
273,58	54,89
273,79	91,13
274,01	111,82
274,22	84,79
274,44	104,65
274,65	79,46
274,87	88,06
275,08	75,77
275,30	62,26
275,51	112,23
275,73	98,10
275,94	85,20
276,16	78,23
276,37	78,23
276,59	119,81
276,80	108,95
277,02	109,16
277,23	66,97
277,45	95,23
277,66	86,22
277,88	75,57
278,09	102,40
278,30	76,39
278,52	101,37
278,73	113,46
278,95	86,63
279,16	70,45
279,38	78,64
279,59	102,81
279,81	96,66
280,02	138,85
280,24	104,86
280,45	94,21
280,67	112,02
280,88	112,23
281,09	69,63
281,31	73,52
281,52	98,10
281,74	87,45
281,95	135,99
282,17	104,45
282,38	110,18
282,60	89,70
282,81	89,91
283,02	72,29
283,24	97,28
283,45	81,30
283,67	89,50
283,88	96,05
284,10	104,45
284,31	89,29
284,53	69,43
284,74	95,44
284,95	92,16
285,17	91,95
285,38	81,71
285,60	93,59
285,81	106,49
286,03	79,26
286,24	88,68
286,45	106,29
286,67	127,59
286,88	128,82
287,10	61,23
287,31	116,12
287,53	82,74
287,74	99,94
287,95	97,28
288,17	115,51
288,38	92,16
288,60	106,08
288,81	107,72
289,02	98,30
289,24	90,32
289,45	120,01
289,67	122,06
289,88	79,26
290,10	108,34
290,31	75,77
290,52	93,80
290,74	120,63
290,95	111,61
291,17	135,17
291,38	112,43
291,59	127,18
291,81	104,04
292,02	145,20
292,24	114,89
292,45	91,75
292,66	92,57
292,88	110,80
293,09	160,15
293,31	114,89
293,52	114,28
293,73	104,45
293,95	112,23
294,16	121,85
294,37	114,28
294,59	114,28
294,80	101,37
295,02	116,12
295,23	84,17
295,44	97,69
295,66	103,83
295,87	111,82
296,09	115,30
296,30	103,01
296,51	112,23
296,73	73,73
296,94	116,32
297,15	99,74
297,37	148,89
297,58	127,59
297,79	131,07
298,01	108,95
298,22	78,23
298,44	130,46
298,65	142,74
298,86	101,99
299,08	133,73
299,29	151,96
299,50	105,27
299,72	115,30
299,93	127,38
300,14	131,68
300,36	94,21
300,57	138,03
300,79	138,85
301,00	98,92
301,21	104,65
301,43	117,14
301,64	88,06
301,85	137,42
302,07	142,33
302,28	116,73
302,49	127,38
302,71	87,45
302,92	133,53
303,13	135,17
303,35	118,78
303,56	127,79
303,77	162,61
303,99	124,93
304,20	120,22
304,41	109,57
304,63	157,49
304,84	130,25
305,05	165,07
305,27	104,24
305,48	122,47
305,69	145,41
305,91	124,11
306,12	102,19
306,33	120,01
306,55	166,50
306,76	154,01
306,97	120,63
307,19	108,75
307,40	160,56
307,61	142,33
307,82	149,71
308,04	144,38
308,25	119,19
308,46	101,58
308,68	129,64
308,89	154,21
309,10	131,07
309,32	145,00
309,53	160,56
309,74	145,61
309,96	148,68
310,17	124,93
310,38	137,42
310,59	132,50
310,81	123,29
311,02	165,07
311,23	177,56
311,45	134,35
311,66	163,43
311,87	129,43
312,09	139,67
312,30	145,82
312,51	161,99
312,72	142,13
312,94	155,85
313,15	144,59
313,36	142,33
313,58	158,51
313,79	183,91
314,00	161,79
314,21	184,11
314,43	143,97
314,64	190,26
314,85	170,19
315,06	180,22
315,28	199,27
315,49	204,59
315,70	162,20
315,92	195,79
316,13	200,29
316,34	171,62
316,55	168,14
316,77	183,29
316,98	201,72
317,19	215,86
317,40	210,53
317,62	181,45
317,83	248,01
318,04	175,72
318,25	197,01
318,47	196,81
318,68	179,40
318,89	181,25
319,11	204,80
319,32	228,96
319,53	217,08
319,74	197,63
319,96	186,57
320,17	220,77
320,38	206,64
320,59	198,86
320,81	229,58
321,02	182,68
321,23	217,08
321,44	240,84
321,65	222,41
321,87	178,17
322,08	217,90
322,29	225,48
322,50	219,34
322,72	228,14
322,93	251,29
323,14	220,16
323,35	227,94
323,57	236,95
323,78	241,05
323,99	233,67
324,20	274,22
324,41	228,35
324,63	260,09
324,84	199,88
325,05	205,41
325,26	244,94
325,48	248,42
325,69	239,82
325,90	242,68
326,11	249,03
326,32	255,59
326,54	251,70
326,75	233,06
326,96	235,52
327,17	252,92
327,39	228,96
327,60	254,56
327,81	275,86
328,02	291,22
328,23	235,31
328,45	250,26
328,66	303,51
328,87	303,92
329,08	254,56
329,29	283,03
329,51	242,68
329,72	260,30
329,93	261,53
330,14	302,08
330,35	291,22
330,56	283,03
330,78	282,62
330,99	275,45
331,20	307,20
331,41	304,94
331,62	312,52
331,84	303,51
332,05	328,90
332,26	292,86
332,47	355,12
332,68	337,51
332,90	302,08
333,11	341,19
333,32	340,99
333,53	331,98
333,74	320,92
333,95	343,85
334,17	319,28
334,38	353,07
334,59	332,79
334,80	306,79
335,01	330,34
335,22	297,77
335,44	350,00
335,65	315,80
335,86	334,64
336,07	324,60
336,28	355,53
336,49	331,77
336,71	358,39
336,92	369,45
337,13	379,49
337,34	368,02
337,55	376,21
337,76	359,42
337,97	357,17
338,19	394,64
338,40	351,43
338,61	396,90
338,82	353,07
339,03	413,89
339,24	384,61
339,45	424,54
339,67	402,43
339,88	442,16
340,09	405,91
340,30	409,18
340,51	417,17
340,72	412,26
340,93	423,72
341,15	434,99
341,36	445,23
341,57	439,90
341,78	405,29
341,99	388,50
342,20	443,18
342,41	463,66
342,62	473,49
342,84	440,72
343,05	440,93
343,26	475,54
343,47	481,89
343,68	450,55
343,89	480,45
344,10	469,39
344,31	483,53
344,53	473,90
344,74	454,65
344,95	470,01
345,16	484,96
345,37	494,99
345,58	516,50
345,79	503,39
346,00	507,28
346,21	530,22
346,42	506,05
346,64	540,46
346,85	522,85
347,06	532,88
347,27	525,92
347,48	533,91
347,69	525,51
347,90	527,15
348,11	570,97
348,32	539,64
348,53	602,51
348,75	586,95
348,96	567,08
349,17	599,03
349,38	564,83
349,59	581,42
349,80	583,47
350,01	584,90
350,22	588,18
350,43	570,77
350,64	613,78
350,85	598,62
351,06	626,47
351,28	644,29
351,49	609,68
351,70	637,12
351,91	670,10
352,12	661,29
352,33	590,22
352,54	650,23
352,75	680,34
352,96	642,45
353,17	688,32
353,38	709,01
353,59	686,07
353,80	743,62
354,01	715,77
354,22	702,86
354,44	678,08
354,65	722,93
354,86	729,08
355,07	725,80
355,28	721,91
355,49	718,02
355,70	740,14
355,91	735,22
356,12	759,80
356,33	736,65
356,54	775,36
356,75	768,40
356,96	767,99
357,17	728,87
357,38	806,29
357,59	749,15
357,80	781,71
358,01	822,46
358,22	772,08
358,43	797,68
358,64	805,67
358,85	829,02
359,07	840,69
359,28	855,44
359,49	816,73
359,70	812,43
359,91	863,42
360,12	835,57
360,33	827,79
360,54	842,53
360,75	873,87
360,96	885,54
361,17	844,79
361,38	840,49
361,59	913,80
361,80	895,17
362,01	912,37
362,22	873,87
362,43	920,97
362,64	930,60
362,85	949,23
363,06	934,49
363,27	920,77
363,48	955,79
363,69	935,51
363,90	930,39
364,11	1001,66
364,32	985,28
364,53	958,04
364,74	999,82
364,95	992,45
365,16	994,70
365,37	1001,66
365,58	975,86
365,79	1033,00
366,00	1051,84
366,21	1025,62
366,42	1031,77
366,63	1053,07
366,84	1085,42
367,05	1058,80
367,26	1041,80
367,47	1071,50
367,68	1081,94
367,89	1106,93
368,10	1037,30
368,31	1019,27
368,52	1033,00
368,73	1108,16
368,94	1109,79
369,15	1082,76
369,36	1132,94
369,57	1162,63
369,78	1162,63
369,99	1188,23
370,20	1190,69
370,40	1180,24
370,61	1279,57
370,82	1253,15
371,03	1243,12
371,24	1240,25
371,45	1284,49
371,66	1256,63
371,87	1270,36
372,08	1342,24
372,29	1269,33
372,50	1268,92
372,71	1323,60
372,92	1328,11
373,13	1278,96
373,34	1373,98
373,55	1358,01
373,76	1377,05
373,97	1335,89
374,18	1400,81
374,39	1386,07
374,60	1431,73
374,81	1370,91
375,01	1410,44
375,22	1447,30
375,43	1388,32
375,64	1474,74
375,85	1427,64
376,06	1503,62
376,27	1444,23
376,48	1469,83
376,69	1435,83
376,90	1471,67
377,11	1504,85
377,32	1475,77
377,53	1473,51
377,74	1542,53
377,94	1489,69
378,15	1542,53
378,36	1505,05
378,57	1625,88
378,78	1504,85
378,99	1622,61
379,20	1581,24
379,41	1603,97
379,62	1599,46
379,83	1594,14
380,04	1615,64
380,25	1651,07
380,45	1638,78
380,66	1661,72
380,87	1655,37
381,08	1615,23
381,29	1700,43
381,50	1708,83
381,71	1735,65
381,92	1755,11
382,13	1778,05
382,34	1718,04
382,55	1746,10
382,75	1779,07
382,96	1735,86
383,17	1763,30
383,38	1837,03
383,59	1784,80
383,80	1795,66
384,01	1837,23
384,22	1884,95
384,43	1842,76
384,63	1832,73
384,84	1858,12
385,05	1803,44
385,26	1896,01
385,47	1948,64
385,68	1960,73
385,89	1957,65
386,10	1940,86
386,30	2032,20
386,51	1917,51
386,72	1997,18
386,93	1970,56
387,14	1973,83
387,35	2076,23
387,56	1969,74
387,77	1996,77
387,97	2052,06
388,18	2140,13
388,39	2124,36
388,60	2148,73
388,81	2039,98
389,02	2140,95
389,23	2175,56
389,43	2094,05
389,64	2142,79
389,85	2144,02
390,06	2139,92
390,27	2212,83
390,48	2186,41
390,69	2189,89
390,89	2346,77
391,10	2299,46
391,31	2231,06
391,52	2357,21
391,73	2337,14
391,94	2291,47
392,14	2344,92
392,35	2356,80
392,56	2449,37
392,77	2427,87
392,98	2396,33
393,19	2421,31
393,39	2487,46
393,60	2465,55
393,81	2566,31
394,02	2453,06
394,23	2478,66
394,44	2525,56
394,64	2508,97
394,85	2627,54
395,06	2460,43
395,27	2525,56
395,48	2593,55
395,69	2477,43
395,89	2683,04
396,10	2742,43
396,31	2605,43
396,52	2669,32
396,73	2656,01
396,93	2763,73
397,14	2697,58
397,35	2804,49
397,56	2716,84
397,77	2737,93
397,97	2821,49
398,18	2895,42
398,39	2791,59
398,60	2869,82
398,81	2831,32
399,01	2937,81
399,22	2875,76
399,43	2930,85
399,64	2945,18
399,85	2906,07
400,05	2896,03
400,26	2969,55
400,47	2929,82
400,68	2938,22
400,89	2937,61
401,09	3008,26
401,30	3079,33
401,51	3006,21
401,72	3057,82
401,93	3113,12
402,13	3102,47
402,34	3114,35
402,55	3124,18
402,76	3106,15
402,96	3148,55
403,17	3049,43
403,38	3125,81
403,59	3105,95
403,80	3335,53
404,00	3248,28
404,21	3176,19
404,42	3315,66
404,63	3317,30
404,83	3366,45
405,04	3220,43
405,25	3297,02
405,46	3339,42
405,66	3240,30
405,87	3367,48
406,08	3363,58
406,29	3467,42
406,49	3439,15
406,70	3450,83
406,91	3335,94
407,12	3598,28
407,32	3408,84
407,53	3657,26
407,74	3529,06
407,95	3465,78
408,15	3615,28
408,36	3513,70
408,57	3567,77
408,78	3667,71
408,98	3624,29
409,19	3597,26
409,40	3674,67
409,61	3605,65
409,81	3681,22
410,02	3702,32
410,23	3709,28
410,44	3881,31
410,64	3784,24
410,85	3729,97
411,06	3803,28
411,26	3757,20
411,47	3802,87
411,68	3828,47
411,89	3673,65
412,09	3868,82
412,30	3890,94
412,51	3787,51
412,72	3822,33
412,92	4025,49
413,13	3963,43
413,34	3954,63
413,54	3974,49
413,75	4013,40
413,96	3937,83
414,17	3953,19
414,37	3991,49
414,58	4009,51
414,79	4093,48
414,99	4006,85
415,20	4180,31
415,41	4117,24
415,61	4148,57
415,82	4228,85
416,03	4045,35
416,24	4148,78
416,44	4199,97
416,65	4304,42
416,86	4344,15
417,06	4235,20
417,27	4213,90
417,48	4187,69
417,68	4325,11
417,89	4381,63
418,10	4275,75
418,30	4358,28
418,51	4348,66
418,72	4335,55
418,92	4495,29
419,13	4320,80
419,34	4496,32
419,55	4409,69
419,75	4547,11
419,96	4418,49
420,17	4655,85
420,37	4624,11
420,58	4452,90
420,79	4401,49
420,99	4692,31
421,20	4653,39
421,41	4634,96
421,61	4681,86
421,82	4547,11
422,03	4727,53
422,23	4617,76
422,44	4822,56
422,65	4767,47
422,85	4742,89
423,06	4773,41
423,26	4911,03
423,47	4957,11
423,68	4868,64
423,88	4931,92
424,09	4858,60
424,30	4981,89
424,50	5006,46
424,71	5147,36
424,92	4935,20
425,12	4937,04
425,33	5141,63
425,54	5229,90
425,74	5277,00
425,95	5116,24
426,15	5360,97
426,36	5068,93
426,57	5278,43
426,77	5127,50
426,98	5277,62
427,19	5273,72
427,39	5421,18
427,60	5168,66
427,81	5359,53
428,01	5291,75
428,22	5610,41
428,42	5204,71
428,63	5437,97
428,84	5507,19
429,04	5363,02
429,25	5436,33
429,45	5370,59
429,66	5571,91
429,87	5664,27
430,07	5590,95
430,28	5582,15
430,49	5581,33
430,69	5766,06
430,90	5626,79
431,10	5625,16
431,31	5618,81
431,52	5948,73
431,72	5647,07
431,93	5665,71
432,13	5779,98
432,34	5958,36
432,55	5636,62
432,75	6148,82
432,96	6132,44
433,16	5966,55
433,37	6067,93
433,58	6339,49
433,78	6083,29
433,99	5735,95
434,19	6223,57
434,40	6135,10
434,60	6309,59
434,81	6297,71
435,02	6191,01
435,22	6345,22
435,43	6155,99
435,63	6278,25
435,84	6381,47
436,05	6492,88
436,25	6063,22
436,46	6521,35
436,66	6387,61
436,87	6445,98
437,07	6298,94
437,28	6455,61
437,48	6599,58
437,69	6385,16
437,90	6508,24
438,10	6539,57
438,31	6564,97
438,51	6912,10
438,72	6607,57
438,92	6683,75
439,13	6772,22
439,34	6749,49
439,54	6812,57
439,75	6735,56
439,95	6766,08
440,16	6895,51
440,36	6909,03
440,57	6837,14
440,77	7085,15
440,98	6846,97
441,18	6848,82
441,39	6850,25
441,60	7307,97
441,80	7030,06
442,01	6897,56
442,21	7170,14
442,42	6923,57
442,62	7013,88
442,83	7092,73
443,03	7184,89
443,24	7138,60
443,44	7133,48
443,65	7211,92
443,85	7166,46
444,06	7298,96
444,26	7295,07
444,47	7165,64
444,67	7517,68
444,88	7236,91
445,09	7159,49
445,29	7325,38
445,50	7349,55
445,70	7268,45
445,91	7361,63
446,11	7248,17
446,32	7503,76
446,52	7465,67
446,73	7544,72
446,93	7566,63
447,14	7489,83
447,34	7555,37
447,55	7400,95
447,75	7559,87
447,96	7664,52
448,16	7549,02
448,37	7642,61
448,57	7510,31
448,78	7715,31
448,98	7635,03
449,19	7601,04
449,39	7670,87
449,60	7661,25
449,80	7833,89
450,01	7788,83
450,21	7839,83
450,42	7888,57
450,62	7852,73
450,83	7846,38
451,03	7879,97
451,23	7882,63
451,44	7906,39
451,64	8143,54
451,85	7951,03
452,05	8137,40
452,26	8053,23
452,46	8141,09
452,67	8016,98
452,87	8041,55
453,08	8079,24
453,28	7900,45
453,49	8397,08
453,69	8141,70
453,90	8259,05
454,10	8520,78
454,31	8372,51
454,51	8334,21
454,71	8341,17
454,92	8241,85
455,12	8214,40
455,33	8650,42
455,53	8626,45
455,74	8833,91
455,94	9146,43
456,15	9077,21
456,35	9487,42
456,55	9203,57
456,76	9455,06
456,96	10005,97
457,17	9207,67
457,37	10325,04
457,58	9692,22
457,78	10224,48
457,99	10082,76
458,19	9370,28
458,39	10205,44
458,60	10280,80
458,80	10345,31
459,01	9990,40
459,21	10054,71
459,42	10381,77
459,62	9850,73
459,82	10800,58
460,03	10368,05
460,23	10796,07
460,44	10592,50
460,64	10051,02
460,85	11110,44
461,05	10388,53
461,25	10316,23
461,46	11244,99
461,66	10909,73
461,87	10535,98
462,07	10723,57
462,27	10438,91
462,48	10308,66
462,68	10757,57
462,89	10641,04
463,09	10603,77
463,29	10944,55
463,50	10831,91
463,70	11286,77
463,91	10850,96
464,11	10700,43
464,31	11170,03
464,52	11270,38
464,72	11575,94
464,93	11391,21
465,13	11894,60
465,33	11411,08
465,54	11035,48
465,74	11042,44
465,95	11618,95
466,15	11886,00
466,35	11940,27
466,56	11780,94
466,76	11967,10
466,96	11696,15
467,17	11843,40
467,37	11844,84
467,58	11870,64
467,78	11922,45
467,98	12299,49
468,19	11866,34
468,39	12391,64
468,59	12586,20
468,80	12442,64
469,00	12212,65
469,21	12256,48
469,41	12352,12
469,61	12977,16
469,82	12393,08
470,02	13031,43
470,22	13571,89
470,43	13192,40
470,63	12885,61
470,83	13923,93
471,04	13265,10
471,24	13523,76
471,45	13254,86
471,65	13559,81
471,85	13453,93
472,06	13811,09
472,26	13942,16
472,46	14072,21
472,67	14262,26
472,87	14270,04
473,07	14251,20
473,28	14094,12
473,48	14661,41
473,68	14779,99
473,89	14783,67
474,09	14771,38
474,29	14850,44
474,50	15149,85
474,70	15129,16
474,90	15368,78
475,11	15623,75
475,31	15623,95
475,51	15672,29
475,72	15797,21
475,92	15877,29
476,12	15704,64
476,33	16268,65
476,53	16315,76
476,73	16455,43
476,93	16755,05
477,14	16543,90
477,34	16681,93
477,54	16953,09
477,75	17233,45
477,95	17145,80
478,15	17275,85
478,36	17399,13
478,56	17731,93
478,76	17992,02
478,97	18174,08
479,17	17941,64
479,37	18042,40
479,57	18133,53
479,78	18288,98
479,98	18217,91
480,18	18807,52
480,39	19009,86
480,59	19003,31
480,79	19103,25
480,99	19273,23
481,20	19299,85
481,40	19519,39
481,60	19919,16
481,81	19678,11
482,01	19854,24
482,21	19986,33
482,41	20147,10
482,62	20238,64
482,82	20457,77
483,02	20785,04
483,23	20703,33
483,43	21079,74
483,63	20814,33
483,83	21211,02
484,04	21504,29
484,24	21302,15
484,44	21898,11
484,64	21505,72
484,85	21791,00
485,05	22036,14
485,25	22259,78
485,45	22280,06
485,66	22307,50
485,86	22568,00
486,06	22676,13
486,26	22902,43
486,47	22910,01
486,67	23228,06
486,87	23443,92
487,07	23318,58
487,28	23401,11
487,48	23354,22
487,68	24211,29
487,88	23804,56
488,09	24023,49
488,29	24051,14
488,49	24486,33
488,69	24361,00
488,90	24633,17
489,10	24324,75
489,30	24590,58
489,50	24857,63
489,71	24854,15
489,91	25223,60
490,11	25212,13
490,31	25384,98
490,52	25272,14
490,72	25548,61
490,92	25867,69
491,12	25807,27
491,32	25917,66
491,53	26271,34
491,73	26107,30
491,93	26417,77
492,13	26555,60
492,33	26474,50
492,54	26442,14
492,74	26847,23
492,94	26815,28
493,14	27147,46
493,35	27012,91
493,55	27173,68
493,75	27397,11
493,95	27253,96
494,15	27167,74
494,36	27662,32
494,56	27650,04
494,76	27682,80
494,96	27864,87
495,16	28080,31
495,37	27982,42
495,57	27917,71
495,77	28250,30
495,97	28281,63
496,17	28540,49
496,37	28531,28
496,58	28699,01
496,78	28374,40
496,98	28726,24
497,18	28841,95
497,38	28882,09
497,59	29030,98
497,79	28928,17
497,99	29064,77
498,19	29171,06
498,39	29229,22
498,59	29530,89
498,80	29214,48
499,00	29610,15
499,20	29448,36
499,40	29454,09
499,60	29654,18
499,80	29791,39
500,01	29898,09
500,21	29821,29
500,41	29707,43
500,61	30157,16
500,81	30028,34
501,01	30019,13
501,22	30312,19
501,42	30281,47
501,62	30015,64
501,82	30343,73
502,02	30287,41
502,22	30035,10
502,42	30351,51
502,63	30495,48
502,83	30266,52
503,03	30471,93
503,23	30489,13
503,43	30321,20
503,63	30231,50
503,83	30640,48
504,04	30192,59
504,24	30490,77
504,44	30210,61
504,64	30569,01
504,84	30343,93
505,04	30301,75
505,24	30753,12
505,44	30585,18
505,65	30358,68
505,85	30488,11
506,05	30591,33
506,25	30417,46
506,45	30315,06
506,65	30445,72
506,85	30758,44
507,05	30854,90
507,26	30633,93
507,46	30672,63
507,66	30906,72
507,86	30876,41
508,06	31068,10
508,26	31062,77
508,46	31090,83
508,66	31181,35
508,86	31414,82
509,06	31625,55
509,27	31548,75
509,47	31634,97
509,67	31812,74
509,87	31802,91
510,07	31894,45
510,27	32128,33
510,47	32009,55
510,67	32213,73
510,87	32303,23
511,07	32250,18
511,28	32514,78
511,48	32205,74
511,68	32516,21
511,88	32733,09
512,08	32552,46
512,28	32724,70
512,48	32726,54
512,68	32942,40
512,88	32996,26
513,08	33210,27
513,28	33247,75
513,48	33329,46
513,68	33618,43
513,89	33419,98
514,09	33310,83
514,29	33956,55
514,49	33736,60
514,69	33756,67
514,89	33933,00
515,09	34246,54
515,29	34330,71
515,49	34198,21
515,69	34427,17
515,89	34734,98
516,09	34899,44
516,29	34927,70
516,49	34994,87
516,69	35146,22
516,89	35244,93
517,09	35041,97
517,29	35432,52
517,50	35499,90
517,70	35541,27
517,90	35687,29
518,10	35417,37
518,30	36251,30
518,50	35737,87
518,70	36209,32
518,90	36614,61
519,10	36727,45
519,30	36871,83
519,50	37080,32
519,70	37162,03
519,90	37045,09
520,10	37487,86
520,30	37434,41
520,50	37305,39
520,70	37774,78
520,90	37670,75
521,10	38011,12
521,30	37977,53
521,50	38492,39
521,70	38494,85
521,90	38683,26
522,10	39023,02
522,30	38357,02
522,50	39086,10
522,70	38976,12
522,90	39341,48
523,10	39219,83
523,30	39737,15
523,50	39415,41
523,70	39856,75
523,90	39761,93
524,10	40084,89
524,30	39754,55
524,50	40044,75
524,70	40236,44
524,90	40375,29
525,10	40664,06
525,30	40451,27
525,50	40947,50
525,70	40949,95
525,90	40892,82
526,10	40953,03
526,30	41346,44
526,50	41515,81
526,70	41460,92
526,90	41504,13
527,10	41422,22
527,30	41761,77
527,50	42112,18
527,70	41816,65
527,90	41776,31
528,10	41996,88
528,30	42267,82
528,50	42156,41
528,70	42256,97
528,90	42734,35
529,10	42597,75
529,30	42594,88
529,50	42972,12
529,70	42735,99
529,90	43057,31
530,10	43190,84
530,29	42938,12
530,49	43330,51
530,69	43454,21
530,89	43680,10
531,09	43361,23
531,29	43300,41
531,49	43593,47
531,69	43671,09
531,89	43629,11
532,09	43947,57
532,29	43634,43
532,49	43740,72
532,69	44058,98
532,89	44064,30
533,09	44050,17
533,29	44427,41
533,49	44005,52
533,68	44297,77
533,88	44825,53
534,08	44726,20
534,28	44311,08
534,48	44577,52
534,68	44585,30
534,88	44429,45
535,08	44744,43
535,28	44710,43
535,48	44874,89
535,68	44964,38
535,88	44962,13
536,08	45223,25
536,27	45212,80
536,47	45037,29
536,67	45774,76
536,87	45319,71
537,07	45007,80
537,27	45444,22
537,47	45705,13
537,67	45354,32
537,87	45652,50
538,07	46222,86
538,27	45692,85
538,46	45910,34
538,66	45773,33
538,86	45549,69
539,06	45956,83
539,26	46116,16
539,46	45781,32
539,66	45963,79
539,86	45948,23
540,06	46270,58
540,25	46031,37
540,45	46250,30
540,65	46267,91
540,85	46556,27
541,05	46429,09
541,25	46521,25
541,45	46648,22
541,65	46294,74
541,85	46534,77
542,04	46438,51
542,24	46528,42
542,44	46795,88
542,64	46697,17
542,84	46730,76
543,04	46679,97
543,24	46665,02
543,43	46980,20
543,63	47028,53
543,83	46728,09
544,03	46808,78
544,23	46861,42
544,43	46973,64
544,63	46806,94
544,82	47539,91
545,02	46800,80
545,22	47524,75
545,42	46881,08
545,62	47436,69
545,82	47541,75
546,02	47296,00
546,21	47256,06
546,41	47264,25
546,61	46937,40
546,81	47492,60
547,01	47087,51
547,21	47722,18
547,40	47055,56
547,60	47482,16
547,80	47042,25
548,00	47692,89
548,20	47615,27
548,40	47275,11
548,59	47940,08
548,79	47791,60
548,99	47667,91
549,19	47518,20
549,39	47685,31
549,59	47796,72
549,78	47420,72
549,98	47773,99
550,18	47633,91
550,38	47597,87
550,58	47725,86
550,77	47779,73
550,97	47901,17
551,17	47437,71
551,37	48150,61
551,57	47975,51
551,76	47652,96
551,96	47717,67
552,16	47579,43
552,36	48201,20
552,56	47855,30
552,75	48096,96
552,95	48050,88
553,15	48161,88
553,35	48234,58
553,55	47658,08
553,74	48306,46
553,94	47915,71
554,14	48021,59
554,34	48096,55
554,54	48136,48
554,73	48486,68
554,93	48402,92
555,13	48476,24
555,33	48269,80
555,53	48639,05
555,72	48272,06
555,92	48286,80
556,12	48330,22
556,32	48313,84
556,51	48498,77
556,71	48614,27
556,91	48174,57
557,11	48504,09
557,30	48679,40
557,50	48487,71
557,70	48183,99
557,90	48807,40
558,10	48633,32
558,29	48496,51
558,49	48757,02
558,69	48415,41
558,89	48280,25
559,08	48632,29
559,28	48788,55
559,48	48687,39
559,68	48679,81
559,87	49018,54
560,07	48679,81
560,27	49025,30
560,47	48887,47
560,66	48937,85
560,86	48685,95
561,06	48676,74
561,25	49072,20
561,45	48970,21
561,65	49137,12
561,85	48908,36
562,04	48787,94
562,24	49001,34
562,44	49090,43
562,64	48851,22
562,83	49176,44
563,03	48855,52
563,23	49281,91
563,42	48950,96
563,62	49392,50
563,82	48976,97
564,02	49421,58
564,21	49190,78
564,41	49300,34
564,61	49461,11
564,80	49370,79
565,00	49192,21
565,20	49349,08
565,40	49412,16
565,59	49534,42
565,79	49628,02
565,99	49675,73
566,18	49665,70
566,38	49452,92
566,58	49670,61
566,78	49488,76
566,97	49802,91
567,17	49843,87
567,37	50034,74
567,56	49773,22
567,76	49821,55
567,96	50168,48
568,15	49897,94
568,35	49793,49
568,55	50219,47
568,74	49863,53
568,94	50160,49
569,14	50131,41
569,33	50065,67
569,53	50065,05
569,73	50452,53
569,92	50005,05
570,12	49924,77
570,32	50244,05
570,52	49900,60
570,71	50366,11
570,91	50033,92
571,11	50543,05
571,30	49982,52
571,50	50505,16
571,70	50566,60
571,89	50273,54
572,09	50655,48
572,28	50560,25
572,48	50792,90
572,68	50630,70
572,87	51024,53
573,07	51138,60
573,27	50649,34
573,46	50976,19
573,66	51089,65
573,86	50891,00
574,05	51454,40
574,25	50964,11
574,45	51074,70
574,64	51223,59
574,84	51082,48
575,04	51398,08
575,23	51510,92
575,43	51682,33
575,62	51569,08
575,82	51387,63
576,02	51180,38
576,21	51560,28
576,41	51619,26
576,61	51738,04
576,80	51469,76
577,00	51537,95
577,19	51592,63
577,39	52007,76
577,59	51779,00
577,78	51860,10
577,98	52075,54
578,18	51680,29
578,37	52124,90
578,57	52211,94
578,76	52173,64
578,96	51879,35
579,16	52225,25
579,35	52430,46
579,55	52051,79
579,74	51971,71
579,94	52354,89
580,14	52537,98
580,33	52733,97
580,53	52759,77
580,72	52563,58
580,92	52819,57
581,12	52372,70
581,31	52689,12
581,51	52926,27
581,70	52738,27
581,90	52947,16
582,10	52833,70
582,29	53186,98
582,49	52863,60
582,68	53233,06
582,88	53336,68
583,07	53126,15
583,27	53124,31
583,47	53554,59
583,66	53601,90
583,86	53333,41
584,05	53388,50
584,25	53367,61
584,44	53482,50
584,64	53316,82
584,84	53507,48
585,03	53581,83
585,23	53351,63
585,42	53724,98
585,62	53246,57
585,81	53775,77
586,01	53638,76
586,20	53752,22
586,40	54018,45
586,60	53512,60
586,79	53675,42
586,99	53731,53
587,18	53999,82
587,38	54157,51
587,57	53760,82
587,77	54256,02
587,96	54088,08
588,16	53871,20
588,35	54161,61
588,55	54302,30
588,75	54018,25
588,94	54164,88
589,14	54457,54
589,33	53996,13
589,53	54517,34
589,72	54094,64
589,92	54692,85
590,11	54264,82
590,31	54307,01
590,50	54710,26
590,70	54098,53
590,89	54825,97
591,09	54347,15
591,28	54212,60
591,48	54585,74
591,67	54060,03
591,87	54612,98
592,06	54579,60
592,26	54475,76
592,45	54471,26
592,65	54707,80
592,84	54778,66
593,04	54657,83
593,23	54516,31
593,43	54868,77
593,62	54561,16
593,82	54466,14
594,01	54671,55
594,21	54808,97
594,40	54716,20
594,60	54580,21
594,79	54931,23
594,99	54347,56
595,18	54912,19
595,38	54617,48
595,57	54894,37
595,77	55223,89
595,96	54879,21
596,16	54948,03
596,35	54715,17
596,55	54684,86
596,74	54758,18
596,94	54703,29
597,13	54602,33
597,33	54809,17
597,52	54705,96
597,72	54659,88
597,91	55008,03
598,11	54915,67
598,30	54783,78
598,50	55139,51
598,69	54760,23
598,88	54923,65
599,08	54671,14
599,27	54941,47
599,47	54914,85
599,66	54984,27
599,86	55177,81
600,05	55025,03
600,25	55272,42
600,44	54739,34
600,64	54964,82
600,83	55127,02
601,02	55342,46
601,22	54934,92
601,41	54674,42
601,61	55060,05
601,80	55032,81
602,00	55283,07
602,19	54671,34
602,38	54591,88
602,58	54563,42
602,77	54782,34
602,97	55006,80
603,16	55328,54
603,36	54358,82
603,55	55143,61
603,74	54274,24
603,94	55010,28
604,13	55016,63
604,33	54724,18
604,52	54552,97
604,72	54629,36
604,91	54568,74
605,10	54965,02
605,30	54452,83
605,49	54577,34
605,69	54870,20
605,88	54432,96
606,07	54929,80
606,27	54691,82
606,46	54541,71
606,66	54601,51
606,85	54165,09
607,04	54373,37
607,24	54155,46
607,43	54499,32
607,63	54387,70
607,82	54258,06
608,01	54432,14
608,21	53878,37
608,40	54299,64
608,60	53752,01
608,79	53935,10
608,98	53619,30
609,18	54204,82
609,37	53553,56
609,57	53312,31
609,76	53478,81
609,95	53512,81
610,15	53791,13
610,34	53803,42
610,53	53630,98
610,73	53529,19
610,92	53560,32
611,11	53559,30
611,31	53538,61
611,50	53381,94
611,70	53385,02
611,89	53445,84
612,08	53701,22
612,28	53643,67
612,47	53493,76
612,66	53689,14
612,86	53537,59
613,05	53479,22
613,24	53450,14
613,44	53669,07
613,63	53548,44
613,82	54008,21
614,02	53730,92
614,21	53668,86
614,41	53801,16
614,60	54041,59
614,79	53453,42
614,99	53719,24
615,18	54246,60
615,37	53827,17
615,57	54757,97
615,76	54270,56
615,95	53981,59
616,15	54106,92
616,34	54510,17
616,53	54623,63
616,73	55310,93
616,92	54925,50
617,11	54983,66
617,30	54769,85
617,50	55054,72
617,69	55381,38
617,88	55524,94
618,08	55241,70
618,27	55868,18
618,46	55876,16
618,66	55936,38
618,85	56020,14
619,04	56286,99
619,24	56610,16
619,43	56904,65
619,62	56743,07
619,82	56953,81
620,01	57035,52
620,20	57375,28
620,39	57171,30
620,59	57281,28
620,78	57572,50
620,97	57880,92
621,17	57929,05
621,36	58379,60
621,55	58273,72
621,74	58457,22
621,94	58403,56
622,13	58822,99
622,32	58692,94
622,52	58761,75
622,71	59001,77
622,90	58954,47
623,09	59147,39
623,29	59246,92
623,48	59326,99
623,67	59736,18
623,86	59576,43
624,06	59746,01
624,25	59781,85
624,44	59991,56
624,64	59796,18
624,83	60102,76
625,02	59334,98
625,21	59954,08
625,41	60156,42
625,60	60043,58
625,79	59992,38
625,98	59995,24
626,18	60853,14
626,37	60096,82
626,56	59891,62
626,75	60720,43
626,95	60088,84
627,14	60274,18
627,33	60570,72
627,52	60552,29
627,72	60560,89
627,91	60352,00
628,10	60903,52
628,29	60921,34
628,49	60686,64
628,68	60443,75
628,87	60668,62
629,06	61344,04
629,25	60660,83
629,45	60511,13
629,64	60725,55
629,83	60809,93
630,02	60721,45
630,22	60401,36
630,41	61107,91
630,60	60538,98
630,79	60346,47
630,98	60620,69
631,18	60515,22
631,37	60425,52
631,56	60916,01
631,75	61065,92
631,94	60794,57
632,14	60839,83
632,33	60544,51
632,52	60761,59
632,71	60288,72
632,90	60735,18
633,10	60661,24
633,29	60425,11
633,48	60429,62
633,67	60213,35
633,86	60741,11
634,06	60625,61
634,25	60221,75
634,44	60540,82
634,63	60153,76
634,82	60624,59
635,02	60141,88
635,21	60351,18
635,40	60586,70
635,59	60163,18
635,78	60413,85
635,97	60304,28
636,17	59756,66
636,36	60651,21
636,55	60103,99
636,74	60583,22
636,93	59710,58
637,12	60305,51
637,32	60818,32
637,51	60023,71
637,70	60152,53
637,89	60366,54
638,08	60447,85
638,27	60106,45
638,47	60062,21
638,66	60241,41
638,85	59897,56
639,04	60228,51
639,23	59881,58
639,42	60186,12
639,62	60332,95
639,81	60057,50
640,00	59875,85
640,19	59939,95
640,38	59903,09
640,57	60082,49
640,76	59826,70
640,95	60023,10
641,15	59831,41
641,34	59897,56
641,53	59949,78
641,72	59544,08
641,91	59985,21
642,10	59792,50
642,29	59631,53
642,49	60160,72
642,68	59770,38
642,87	59976,40
643,06	60121,19
643,25	60149,87
643,44	59688,87
643,63	59816,87
643,82	60030,88
644,01	60165,64
644,21	59903,09
644,40	59811,34
644,59	59520,32
644,78	59901,24
644,97	59289,72
645,16	59764,44
645,35	59421,20
645,54	60106,24
645,73	59560,26
645,92	60020,43
646,12	59796,59
646,31	59583,60
646,50	59690,10
646,69	60212,94
646,88	59606,13
647,07	59903,91
647,26	59674,33
647,45	59752,77
647,64	59222,55
647,83	59963,09
648,02	59665,52
648,22	59741,30
648,41	59558,82
648,60	59728,60
648,79	59423,45
648,98	59715,70
649,17	59394,17
649,36	59513,77
649,55	59207,80
649,74	59200,43
649,93	59131,41
650,12	59422,63
650,31	59425,91
650,50	58949,55
650,69	59453,56
650,88	59549,81
651,08	58975,97
651,27	59449,05
651,46	59230,12
651,65	59047,04
651,84	58670,41
652,03	58999,52
652,22	58962,25
652,41	59127,52
652,60	59114,62
652,79	59015,29
652,98	58799,03
653,17	58954,67
653,36	58838,35
653,55	58756,63
653,74	58975,97
653,93	58936,04
654,12	58538,32
654,31	58969,01
654,50	58989,90
654,69	58714,44
654,88	58557,16
655,07	58844,08
655,26	58200,00
655,45	58544,87
655,64	58445,96
655,83	58733,08
656,02	58489,99
656,21	58488,35
656,40	58288,67
656,59	58662,43
656,78	58209,42
656,97	58395,58
657,17	58510,88
657,36	58327,58
657,55	57890,75
657,74	58508,21
657,93	58083,67
658,12	58115,82
658,31	58224,57
658,50	58210,85
658,69	57940,72
658,87	58621,67
659,06	57911,85
659,25	58000,52
659,44	57912,05
659,63	58170,91
659,82	58235,22
660,01	57437,13
660,20	58116,44
660,39	58096,37
660,58	58015,06
660,77	57786,72
660,96	57785,69
661,15	57394,94
661,34	58003,80
661,53	57736,13
661,72	57557,55
661,91	57923,31
662,10	57641,10
662,29	57733,47
662,48	57279,43
662,67	57535,63
662,86	57276,16
663,05	57498,36
663,24	57560,82
663,43	57229,87
663,62	57240,32
663,81	57280,66
664,00	57393,10
664,19	56944,59
664,38	57302,78
664,57	57037,98
664,76	57228,23
664,94	57052,72
665,13	56741,84
665,32	56737,75
665,51	57288,03
665,70	56670,16
665,89	56992,10
666,08	56558,96
666,27	57129,32
666,46	56566,33
666,65	56482,16
666,84	56798,37
667,03	56816,59
667,22	56415,60
667,41	56576,57
667,60	56566,74
667,78	56419,70
667,97	56561,01
668,16	56524,55
668,35	56315,86
668,54	55907,09
668,73	56281,46
668,92	55993,72
669,11	56228,83
669,30	56073,18
669,49	56142,81
669,68	55956,65
669,86	56029,97
670,05	56037,14
670,24	55484,59
670,43	55545,83
670,62	55669,52
670,81	55817,39
671,00	55663,18
671,19	55761,89
671,38	55396,74
671,57	55485,00
671,75	55608,50
671,94	55286,96
672,13	55374,00
672,32	55520,64
672,51	55163,27
672,70	55671,57
672,89	55175,76
673,08	55242,93
673,26	55412,10
673,45	54893,96
673,64	55450,39
673,83	55050,83
674,02	55077,87
674,21	55116,98
674,40	55182,72
674,59	55220,00
674,77	55172,28
674,96	54884,74
675,15	54877,37
675,34	55086,67
675,53	54668,89
675,72	54723,77
675,91	54823,10
676,09	54719,88
676,28	54715,99
676,47	54382,38
676,66	54263,39
676,85	54539,46
677,04	54781,53
677,22	54390,36
677,41	54561,57
677,60	54499,32
677,79	54242,50
677,98	54062,48
678,17	54140,72
678,36	54374,80
678,54	54173,69
678,73	53995,72
678,92	54193,96
679,11	54056,54
679,30	53917,28
679,48	54114,50
679,67	53701,02
679,86	54300,25
680,05	53730,92
680,24	53733,99
680,43	53577,73
680,61	53572,00
680,80	53579,16
680,99	53614,59
681,18	53493,97
681,37	53415,53
681,55	53639,99
681,74	53077,41
681,93	53600,46
682,12	53433,35
682,31	53457,72
682,49	53233,88
682,68	53164,45
682,87	53259,07
683,06	53492,94
683,25	52995,29
683,43	53709,82
683,62	52913,16
683,81	53464,27
684,00	52996,72
684,19	52681,54
684,37	52633,82
684,56	52895,55
684,75	52491,28
684,94	52732,74
685,12	52746,25
685,31	52989,35
685,50	52866,47
685,69	52892,68
685,88	52639,56
686,06	52465,48
686,25	52328,26
686,44	52473,26
686,63	52531,83
686,81	52634,44
687,00	52489,85
687,19	52463,63
687,38	52413,87
687,56	52304,10
687,75	52338,30
687,94	52517,29
688,13	52138,01
688,31	52472,85
688,50	52108,31
688,69	52100,94
688,88	52061,62
689,06	51730,05
689,25	52068,58
689,44	51959,63
689,63	51327,01
689,81	51971,51
690,00	51746,03
690,19	51886,72
690,38	51685,00
690,56	51518,50
690,75	51564,99
690,94	51212,53
691,13	51791,08
691,31	51513,99
691,50	51447,23
691,69	51312,68
691,87	51506,41
692,06	51460,74
692,25	51326,81
692,44	51154,16
692,62	51128,77
692,81	51053,20
693,00	51181,81
693,18	51223,59
693,37	51175,05
693,56	51063,23
693,75	51198,19
693,93	51243,05
694,12	50986,23
694,31	50921,51
694,49	50744,57
694,68	50918,44
694,87	50868,68
695,05	51212,74
695,24	51092,72
695,43	50807,85
695,62	50836,52
695,80	50929,50
695,99	50712,62
696,18	50591,38
696,36	50924,18
696,55	50596,50
696,74	50518,68
696,92	50442,70
697,11	50434,51
697,30	50584,62
697,48	50503,11
697,67	50639,10
697,86	50331,70
698,04	50562,91
698,23	50160,08
698,42	50496,97
698,60	50077,75
698,79	50335,59
698,98	50008,32
699,16	50103,35
699,35	50114,82
699,54	49936,44
699,72	49917,80
699,91	50343,58
700,10	50242,00
700,28	50015,49
700,47	49896,92
700,66	50004,84
700,84	49792,06
701,03	49836,09
701,21	49829,74
701,40	50363,03
701,59	49521,11
701,77	49735,33
701,96	49960,40
702,15	49750,28
702,33	49774,45
702,52	49856,98
702,71	49596,07
702,89	49795,54
703,08	49594,23
703,26	49434,48
703,45	49855,34
703,64	49460,49
703,82	49423,43
704,01	49496,13
704,20	49206,34
704,38	49330,45
704,57	49037,59
704,75	49303,82
704,94	49274,13
705,13	49278,22
705,31	49534,83
705,50	49434,07
705,68	49234,60
705,87	49385,33
706,06	49045,98
706,24	49407,04
706,43	49111,93
706,61	49164,56
706,80	49167,84
706,99	49232,96
707,17	49052,13
707,36	48885,63
707,54	48534,40
707,73	48994,79
707,92	49046,80
708,10	48845,90
708,29	48604,24
708,47	48787,12
708,66	48733,46
708,84	48810,67
709,03	48384,49
709,22	48520,89
709,40	48289,87
709,59	48628,40
709,77	48261,82
709,96	48473,37
710,14	48207,55
710,33	48238,47
710,52	48190,96
710,70	48427,70
710,89	47823,55
711,07	47984,73
711,26	48349,47
711,44	47986,77
711,63	47963,02
711,81	48028,35
712,00	48008,48
712,19	47780,34
712,37	47661,76
712,56	47872,29
712,74	47619,16
712,93	47786,69
713,11	47752,49
713,30	47626,74
713,48	47660,12
713,67	47909,98
713,85	47566,53
714,04	47582,30
714,22	47400,24
714,41	47702,11
714,59	47532,95
714,78	47630,63
714,97	47430,75
715,15	47136,66
715,34	47445,29
715,52	47631,86
715,71	47542,98
715,89	46941,08
716,08	47359,89
716,26	47157,96
716,45	47186,84
716,63	47623,26
716,82	46784,00
717,00	47116,80
717,19	46908,31
717,37	47033,24
717,56	46758,61
717,74	46774,17
717,93	46831,31
718,11	46665,84
718,30	46693,07
718,48	46639,83
718,67	46632,04
718,85	46240,68
719,04	45996,76
719,22	46087,90
719,41	46161,63
719,59	46241,09
719,78	45748,14
719,96	45883,10
720,15	45861,80
720,33	46403,90
720,52	45570,99
720,70	45651,27
720,88	45589,42
721,07	45707,18
721,25	45535,77
721,44	45626,90
721,62	45105,69
721,81	45584,71
721,99	45191,91
722,18	45185,36
722,36	45271,17
722,55	45110,61
722,73	44926,70
722,92	45213,83
723,10	45148,70
723,28	45171,64
723,47	44770,03
723,65	44615,20
723,84	44779,66
724,02	44709,82
724,21	44473,89
724,39	44456,90
724,58	44231,41
724,76	44893,52
724,94	44110,79
725,13	44612,95
725,31	44108,13
725,50	44391,77
725,68	44225,07
725,87	43956,37
726,05	43864,21
726,23	43955,35
726,42	43886,95
726,60	43983,82
726,79	43689,11
726,97	43876,09
727,16	43545,96
727,34	43566,03
727,52	43390,93
727,71	43240,40
727,89	43582,00
728,08	43439,87
728,26	43686,86
728,44	43337,48
728,63	43874,45
728,81	43134,73
729,00	43337,27
729,18	43390,11
729,36	43417,76
729,55	43127,97
729,73	43383,97
729,92	43258,42
730,10	42652,64
730,28	43569,31
730,47	43072,26
730,65	43333,59
730,84	43138,00
731,02	43026,39
731,20	43075,95
731,39	43009,80
731,57	42733,33
731,75	43451,96
731,94	42783,50
732,12	42928,09
732,31	42349,33
732,49	43037,45
732,67	42404,83
732,86	42559,25
733,04	42369,81
733,22	42673,93
733,41	42321,89
733,59	42598,16
733,78	42346,26
733,96	42024,73
734,14	42603,89
734,33	42330,29
734,51	42096,61
734,69	42028,41
734,88	42069,99
735,06	42323,53
735,24	41918,44
735,43	41993,80
735,61	42132,04
735,79	41734,12
735,98	41762,79
736,16	42019,20
736,34	41661,21
736,53	41947,11
736,71	41695,01
736,89	41629,06
737,08	41189,36
737,26	41577,45
737,44	41378,18
737,63	41309,17
737,81	41447,20
737,99	41453,14
738,18	41123,21
738,36	41453,14
738,54	41111,33
738,73	41070,17
738,91	41223,15
739,09	41411,77
739,28	40781,82
739,46	41180,97
739,64	41196,94
739,82	40828,30
740,01	40883,19
740,19	41017,95
740,37	40726,93
740,56	40415,23
740,74	40732,87
740,92	40468,27
741,11	40462,74
741,29	40694,37
741,47	40344,17
741,65	40144,90
741,84	40365,87
742,02	40217,81
742,20	40127,49
742,39	39864,74
742,57	40120,73
742,75	39842,62
742,93	39921,67
743,12	39728,75
743,30	39545,46
743,48	39865,35
743,67	39671,20
743,85	39650,93
744,03	39678,58
744,21	39228,64
744,40	39340,05
744,58	39484,22
744,76	39244,41
744,94	39203,65
745,13	39331,44
745,31	39171,50
745,49	38796,92
745,67	38998,04
745,86	38928,20
746,04	39244,41
746,22	38880,48
746,40	38692,89
746,59	38765,18
746,77	38891,75
746,95	38630,02
747,13	38627,56
747,32	38287,80
747,50	38472,73
747,68	38414,57
747,86	38196,87
748,05	38224,52
748,23	38291,49
748,41	38044,30
748,59	37981,22
748,77	37838,27
748,96	37704,95
749,14	37697,78
749,32	37823,32
749,50	37570,19
749,69	37736,69
749,87	37464,72
750,05	37389,15
750,23	37381,57
750,41	37230,23
750,60	37259,92
750,78	37259,31
750,96	37289,82
751,14	37043,86
751,32	37074,99
751,51	37176,16
751,69	36971,98
751,87	36551,74
752,05	37133,56
752,23	36830,06
752,42	36638,16
752,60	36882,28
752,78	36600,89
752,96	36902,76
753,14	36868,56
753,33	36962,76
753,51	36517,95
753,69	37121,28
753,87	36543,75
754,05	37161,42
754,23	36636,52
754,42	37076,22
754,60	36738,72
754,78	37145,44
754,96	36694,28
755,14	37084,62
755,32	36689,16
755,51	37325,46
755,69	36983,45
755,87	37237,19
756,05	37245,18
756,23	37408,40
756,41	37082,98
756,60	37423,97
756,78	37458,17
756,96	37618,32
757,14	37493,19
757,32	37615,86
757,50	37992,48
757,68	37813,70
757,87	37886,60
758,05	38076,04
758,23	37872,06
758,41	38180,28
758,59	38014,19
758,77	38182,74
758,95	38470,07
759,14	38216,74
759,32	38665,65
759,50	38968,75
759,68	38765,80
759,86	39122,35
760,04	39283,32
760,22	38912,43
760,40	39294,79
760,59	39611,20
760,77	39570,85
760,95	39914,30
761,13	39755,78
761,31	39627,79
761,49	40047,82
761,67	40204,08
761,85	39840,77
762,03	40095,95
762,22	40277,40
762,40	40440,62
762,58	40368,13
762,76	40503,09
762,94	40393,32
763,12	40512,30
763,30	40509,03
763,48	40592,38
763,66	40407,86
763,84	40880,53
764,02	40756,63
764,21	40704,61
764,39	40852,68
764,57	41041,91
764,75	40926,61
764,93	40653,61
765,11	40770,76
765,29	41000,33
765,47	41003,82
765,65	40808,03
765,83	40698,46
766,01	40713,21
766,19	41003,41
766,37	40721,81
766,56	40630,06
766,74	40992,76
766,92	40673,48
767,10	40521,93
767,28	40638,46
767,46	40385,74
767,64	40461,51
767,82	40331,67
768,00	40084,28
768,18	40229,89
768,36	40242,38
768,54	39946,04
768,72	40024,68
768,90	40008,09
769,08	39821,11
769,26	39584,16
769,44	39750,46
769,62	39746,36
769,80	39425,65
769,98	39550,99
770,16	39192,18
770,34	38903,01
770,52	39090,19
770,71	38965,47
770,89	38693,09
771,07	38900,96
771,25	38528,44
771,43	38512,05
771,61	38351,08
771,79	38046,14
771,97	38090,58
772,15	37978,76
772,33	37686,11
772,51	37421,71
772,69	37679,14
772,87	37303,75
773,05	37232,28
773,23	37464,31
773,41	37082,98
773,59	36995,94
773,77	36704,11
773,95	36954,57
774,13	36365,37
774,31	36624,23
774,49	36172,86
774,67	36101,18
774,85	35996,33
775,03	35851,13
775,21	35659,85
775,39	35925,06
775,57	35469,18
775,75	35480,03
775,93	35294,69
776,10	35028,66
776,28	34694,84
776,46	34765,09
776,64	34723,92
776,82	34656,55
777,00	34440,69
777,18	34324,57
777,36	33989,93
777,54	34480,63
777,72	33795,79
777,90	33811,14
778,08	33778,17
778,26	33503,34
778,44	33511,12
778,62	33375,54
778,80	33177,71
778,98	33052,37
779,16	32875,63
779,34	32630,49
779,52	32456,62
779,70	32581,75
779,88	32194,89
780,05	32310,19
780,23	31891,38
780,41	32229,29
780,59	31889,74
780,77	31834,65
780,95	31703,58
781,13	31650,95
781,31	31408,26
781,49	31156,98
781,67	31239,10
781,85	31183,60
782,03	30909,17
782,21	30931,50
782,39	30873,74
782,56	30634,13
782,74	30424,21
782,92	30668,54
783,10	30285,77
783,28	30216,14
783,46	30253,21
783,64	30201,60
783,82	29942,94
784,00	29831,33
784,18	29888,47
784,35	29907,31
784,53	29630,83
784,71	29578,81
784,89	29405,76
785,07	29400,64
785,25	29343,91
785,43	29226,56
785,61	28797,72
785,79	29107,17
785,96	28628,96
786,14	28830,89
786,32	28791,57
786,50	28548,27
786,68	28338,56
786,86	28338,36
787,04	28280,20
787,22	28132,74
787,39	27927,13
787,57	28067,62
787,75	27769,64
787,93	27745,88
788,11	27768,20
788,29	27596,99
788,47	27490,91
788,65	27415,54
788,82	27045,07
789,00	27559,52
789,18	27153,81
789,36	27247,61
789,54	26884,71
789,72	26876,31
789,89	26890,65
790,07	26813,24
790,25	26563,79
790,43	26715,96
790,61	26463,85
790,79	26310,66
790,96	26308,62
791,14	26100,13
791,32	25944,28
791,50	26303,70
791,68	25929,95
791,86	25873,63
792,03	25496,39
792,21	25820,79
792,39	25540,83
792,57	25682,35
792,75	25371,88
792,93	25673,34
793,10	25230,16
793,28	25402,19
793,46	25171,58
793,64	25292,62
793,82	25008,98
793,99	25286,07
794,17	24863,36
794,35	25063,04
794,53	24733,32
794,71	24787,59
794,88	24507,63
795,06	24612,28
795,24	24500,87
795,42	24559,65
795,60	24351,58
795,77	24394,38
795,95	24098,24
796,13	24123,02
796,31	24146,37
796,49	24196,55
796,66	23862,73
796,84	23876,24
797,02	23884,03
797,20	23808,66
797,37	23841,84
797,55	23812,55
797,73	23603,66
797,91	23667,56
798,08	23505,56
798,26	23564,95
798,44	23101,29
798,62	23171,13
798,80	23216,80
798,97	23237,69
799,15	22923,12
799,33	22990,50
799,51	23181,16
799,68	22915,54
799,86	23032,89
800,04	22665,89
800,22	22475,43
800,39	22633,74
800,57	22439,18
800,75	22588,48
800,93	22350,71
801,10	22369,35
801,28	22086,32
801,46	22053,55
801,63	22115,20
801,81	22117,65
801,99	21946,44
802,17	22042,90
802,34	21749,84
802,52	21855,31
802,70	21845,48
802,88	21823,36
803,05	21575,15
803,23	21621,63
803,41	21442,85
803,58	21450,02
803,76	21527,63
803,94	21335,33
804,12	21531,93
804,29	21411,72
804,47	21288,84
804,65	21160,64
804,82	20863,68
805,00	20906,28
805,18	21010,93
805,35	21034,28
805,53	20727,90
805,71	20823,34
805,89	20850,57
806,06	20670,56
806,24	20700,66
806,42	20820,67
806,59	20593,14
806,77	20761,28
806,95	20504,47
807,12	20368,28
807,30	20356,19
807,48	20310,32
807,65	20210,17
807,83	20196,25
808,01	20029,95
808,18	20088,12
808,36	19873,28
808,54	20027,29
808,71	19841,13
808,89	19766,99
809,07	19667,46
809,24	19800,99
809,42	19871,44
809,60	19781,13
809,77	19508,13
809,95	19510,59
810,13	19389,76
810,30	19414,54
810,48	19424,16
810,66	19395,29
810,83	19322,38
811,01	19438,30
811,18	19072,32
811,36	19294,94
811,54	19076,21
811,71	19049,39
811,89	19064,75
812,07	19081,33
812,24	18970,54
812,42	18907,87
812,59	18827,39
812,77	18785,40
812,95	18877,36
813,12	18774,14
813,30	18706,15
813,48	18805,88
813,65	18600,68
813,83	18558,90
814,00	18337,92
814,18	18288,98
814,36	18381,34
814,53	18315,19
814,71	18376,42
814,88	18169,99
815,06	18261,74
815,24	18178,59
815,41	18146,85
815,59	18091,96
815,76	17914,81
815,94	17999,80
816,12	17785,99
816,29	17917,27
816,47	17813,85
816,64	17891,46
816,82	17634,85
817,00	17749,13
817,17	17558,87
817,35	17797,67
817,52	17631,78
817,70	17716,98
817,87	17625,02
818,05	17535,12
818,23	17237,14
818,40	17437,43
818,58	17161,16
818,75	17362,06
818,93	17157,06
819,10	17429,44
819,28	17115,08
819,46	17198,84
819,63	17070,64
819,81	16999,16
819,98	17000,80
820,16	16860,93
820,33	16777,78
820,51	16884,89
820,68	16734,98
820,86	16771,84
821,03	16555,78
821,21	16471,81
821,39	16437,61
821,56	16696,47
821,74	16438,23
821,91	16424,50
822,09	16468,33
822,26	16379,04
822,44	16256,98
822,61	16251,86
822,79	16170,56
822,96	16276,64
823,14	16204,96
823,31	16008,15
823,49	16121,41
823,66	16176,29
823,84	15886,91
824,01	15938,73
824,19	15790,04
824,36	15947,94
824,54	15908,83
824,71	15675,15
824,89	15714,88
825,06	15585,25
825,24	15544,90
825,41	15648,32
825,59	15403,39
825,76	15497,18
825,94	15363,86
826,11	15335,19
826,29	15325,97
826,46	15282,56
826,64	15209,85
826,81	15154,15
826,99	15109,30
827,16	15109,71
827,34	14984,58
827,51	15033,93
827,69	14842,04
827,86	14909,42
828,04	14934,81
828,21	14841,22
828,39	14850,85
828,56	14827,29
828,74	14528,50
828,91	14616,15
829,09	14598,74
829,26	14579,49
829,43	14584,20
829,61	14506,58
829,78	14322,47
829,96	14424,87
830,13	14352,78
830,31	14458,66
830,48	14275,37
830,66	14374,69
830,83	14278,64
831,01	14222,32
831,18	14310,59
831,35	14099,04
831,53	14047,43
831,70	14142,66
831,88	13997,05
832,05	14032,27
832,23	13951,58
832,40	13968,38
832,57	13925,16
832,75	13862,70
832,92	13640,91
833,10	13908,37
833,27	13750,27
833,45	13666,30
833,62	13574,96
833,79	13642,95
833,97	13646,64
834,14	13523,15
834,32	13383,07
834,49	13435,70
834,66	13402,11
834,84	13404,37
835,01	13293,57
835,19	13228,85
835,36	13170,08
835,53	13275,55
835,71	13224,55
835,88	13117,85
836,06	13107,41
836,23	13028,15
836,40	12974,09
836,58	13026,72
836,75	12916,95
836,93	12955,45
837,10	12803,29
837,27	12815,78
837,45	12800,42
837,62	12741,64
837,79	12712,15
837,97	12789,56
838,14	12593,78
838,32	12742,67
838,49	12494,04
838,66	12560,81
838,84	12526,61
839,01	12442,43
839,18	12433,63
839,36	12435,68
839,53	12333,28
839,70	12387,55
839,88	12283,31
840,05	12273,68
840,23	12202,62
840,40	12146,71
840,57	12232,52
840,75	12180,70
840,92	12066,02
841,09	12087,93
841,27	12135,24
841,44	12049,02
841,61	12010,31
841,79	12026,90
841,96	11894,81
842,13	11941,30
842,31	11837,26
842,48	11835,42
842,65	11792,82
842,83	11761,69
843,00	11660,52
843,17	11675,06
843,35	11611,37
843,52	11684,89
843,69	11538,87
843,86	11674,65
844,04	11444,05
844,21	11448,96
844,38	11604,61
844,56	11459,82
844,73	11314,62
844,90	11304,38
845,08	11252,97
845,25	11302,33
845,42	11157,13
845,60	11199,11
845,77	11070,30
845,94	11070,70
846,11	11107,36
846,29	11059,03
846,46	10952,74
846,63	10998,82
846,81	10939,02
846,98	10854,23
847,15	10874,30
847,32	10819,83
847,50	10766,58
847,67	10832,94
847,84	10705,76
848,01	10805,70
848,19	10624,66
848,36	10652,30
848,53	10588,41
848,71	10596,80
848,88	10488,67
849,05	10593,12
849,22	10475,77
849,40	10519,19
849,57	10411,67
849,74	10416,79
849,91	10367,02
850,09	10292,68
850,26	10278,96
850,43	10371,12
850,60	10110,00
850,78	10275,48
850,95	10174,92
851,12	10133,55
851,29	10095,67
851,47	10105,09
851,64	10033,20
851,81	10026,86
851,98	9996,14
852,15	10035,05
852,33	9886,77
852,50	9858,31
852,67	9801,78
852,84	9868,55
853,02	9831,27
853,19	9686,07
853,36	9682,39
853,53	9732,77
853,70	9712,29
853,88	9707,17
854,05	9620,54
854,22	9576,71
854,39	9608,05
854,56	9525,72
854,74	9486,60
854,91	9594,94
855,08	9378,26
855,25	9274,43
855,42	9331,36
855,60	9405,30
855,77	9281,60
855,94	9223,85
856,11	9257,02
856,28	9238,39
856,46	9235,11
856,63	9179,20
856,80	9211,56
856,97	9127,80
857,14	9037,89
857,31	8990,79
857,49	9008,20
857,66	9097,90
857,83	8842,11
858,00	8989,76
858,17	8898,63
858,34	8875,08
858,52	8877,13
858,69	8831,25
858,86	8749,54
859,03	8862,99
859,20	8677,86
859,37	8707,55
859,55	8553,55
859,72	8618,67
859,89	8562,15
860,06	8571,36
860,23	8532,66
860,40	8610,28
860,57	8552,52
860,75	8447,87
860,92	8367,39
861,09	8437,02
861,26	8439,68
861,43	8384,79
861,60	8300,42
861,77	8336,26
861,95	8280,96
862,12	8286,29
862,29	8147,23
862,46	8202,11
862,63	8130,85
862,80	8079,85
862,97	8113,85
863,14	8124,91
863,31	8073,71
863,49	8051,38
863,66	8032,75
863,83	8065,52
864,00	8008,99
864,17	7911,51
864,34	7979,09
864,51	7977,04
864,68	7794,36
864,85	7904,54
865,02	7806,04
865,20	7838,60
865,37	7748,49
865,54	7784,12
865,71	7731,29
865,88	7776,34
866,05	7622,33
866,22	7681,11
866,39	7598,37
866,56	7587,31
866,73	7543,69
866,90	7499,05
867,07	7485,12
867,25	7503,35
867,42	7459,11
867,59	7455,84
867,76	7333,57
867,93	7430,24
868,10	7316,57
868,27	7400,54
868,44	7294,46
868,61	7285,44
868,78	7202,09
868,95	7191,85
869,12	7204,75
869,29	7195,33
869,46	7188,17
869,63	7062,42
869,80	7034,36
869,97	7088,63
870,14	6977,84
870,32	7054,23
870,49	7002,82
870,66	6962,48
870,83	6917,22
871,00	6974,15
871,17	6791,88
871,34	6882,61
871,51	6755,02
871,68	6803,15
871,85	6775,09
872,02	6723,89
872,19	6654,06
872,36	6711,81
872,53	6651,39
872,70	6698,09
872,87	6612,89
873,04	6572,55
873,21	6572,75
873,38	6540,39
873,55	6463,18
873,72	6440,45
873,89	6408,09
874,06	6393,14
874,23	6401,95
874,40	6325,15
874,57	6339,49
874,74	6247,74
874,91	6212,10
875,08	6239,75
875,25	6159,06
875,42	6186,09
875,59	6100,28
875,76	6208,21
875,93	6122,81
876,10	6047,65
876,27	6044,37
876,44	6008,74
876,61	6007,51
876,78	6089,43
876,95	5929,48
877,12	5993,38
877,29	5959,38
877,46	5911,26
877,62	5871,12
877,79	5845,31
877,96	5868,04
878,13	5841,63
878,30	5775,89
878,47	5781,62
878,64	5687,21
878,81	5674,10
878,98	5680,04
879,15	5700,52
879,32	5718,54
879,49	5635,81
879,66	5594,03
879,83	5624,54
880,00	5603,24
880,17	5573,96
880,34	5503,30
880,51	5539,76
880,67	5502,69
880,84	5446,16
881,01	5386,16
881,18	5460,09
881,35	5354,21
881,52	5401,93
881,69	5376,53
881,86	5433,47
882,03	5316,94
882,20	5366,70
882,37	5264,10
882,54	5313,45
882,70	5259,39
882,87	5264,51
883,04	5229,90
883,21	5192,62
883,38	5206,76
883,55	5182,18
883,72	5155,56
883,89	5163,95
884,06	5105,59
884,23	5143,88
884,39	5053,77
884,56	5087,77
884,73	5059,71
884,90	5035,96
885,07	5011,38
885,24	5007,28
885,41	5012,61
885,58	5005,24
885,74	4960,39
885,91	4920,86
886,08	4909,80
886,25	4933,76
886,42	4905,29
886,59	4848,98
886,76	4837,30
886,93	4886,86
887,09	4870,07
887,26	4834,64
887,43	4797,57
887,60	4792,45
887,77	4650,73
887,94	4726,71
888,10	4712,58
888,27	4669,16
888,44	4699,47
888,61	4699,88
888,78	4615,71
888,95	4631,07
889,12	4652,99
889,28	4607,52
889,45	4521,92
889,62	4531,95
889,79	4501,23
889,96	4576,39
890,13	4491,81
890,29	4508,40
890,46	4374,87
890,63	4440,82
890,80	4385,52
890,97	4438,15
891,13	4329,61
891,30	4293,36
891,47	4363,40
891,64	4329,41
891,81	4236,02
891,98	4352,75
892,14	4249,13
892,31	4286,19
892,48	4273,29
892,65	4197,93
892,82	4139,15
892,98	4196,08
893,15	4173,76
893,32	4169,25
>>>>>End Processed Spectral Data<<<<<
