SpectraSuite Datei
++++++++++++++++++++++++++++++++++++
Datum: Tue Dec 10 14:47:03 CET 2019
Benutzer: Lichtquellen1
Dark-Spektrum vorhanden: Ja
Referenz-Spektrum vorhanden: Nein
Zahl der probierten Teilspektren: 1
Spektrometer: USB4F05832
Integrationszeit (usec): 100000 (USB4F05832)
Spektren Durchschnitt berechnet: 10 (USB4F05832)
Boxcar Glättung: 0 (USB4F05832)
Dunkelstromkorrektur: Nein (USB4F05832)
Puls/Lampe aktiviert: Nein (USB4F05832)
Correct for Detector Non-linearity: Nein (USB4F05832)
Streulichtkorrektur: Nein (USB4F05832)
Anzahl Pixel in verarbeitetem Spektrum: 3648
>>>>>Begin Processed Spectral Data<<<<<
177,54	25,60
177,75	25,60
177,97	25,60
178,19	8,60
178,41	24,58
178,63	23,96
178,85	-6,14
179,07	0,61
179,29	30,51
179,51	26,83
179,73	63,90
179,95	22,73
180,17	12,70
180,39	26,83
180,61	26,62
180,83	29,08
181,05	4,10
181,27	33,79
181,49	22,12
181,71	23,96
181,92	42,60
182,14	60,82
182,36	30,31
182,58	40,14
182,80	4,92
183,02	66,97
183,24	35,84
183,46	42,19
183,68	65,13
183,90	39,73
184,12	30,92
184,34	50,38
184,56	73,73
184,78	50,18
185,00	47,72
185,21	15,77
185,43	46,90
185,65	14,54
185,87	44,85
186,09	56,93
186,31	43,42
186,53	50,58
186,75	54,07
186,97	54,48
187,19	18,43
187,41	12,08
187,63	57,14
187,84	47,31
188,06	38,09
188,28	8,81
188,50	36,25
188,72	35,02
188,94	14,34
189,16	57,96
189,38	44,24
189,60	71,47
189,82	28,88
190,03	43,83
190,25	46,69
190,47	32,97
190,69	20,48
190,91	49,36
191,13	49,56
191,35	70,25
191,57	31,74
191,79	30,11
192,01	29,29
192,22	70,25
192,44	24,58
192,66	35,23
192,88	40,96
193,10	19,46
193,32	55,91
193,54	44,65
193,76	14,75
193,98	0,82
194,19	29,49
194,41	50,79
194,63	18,84
194,85	36,25
195,07	72,91
195,29	45,46
195,51	53,45
195,73	37,27
195,94	28,88
196,16	30,31
196,38	28,47
196,60	30,51
196,82	61,85
197,04	58,57
197,26	47,31
197,48	30,92
197,69	66,97
197,91	27,03
198,13	30,51
198,35	43,01
198,57	41,37
198,79	45,06
199,01	46,28
199,22	47,92
199,44	49,56
199,66	45,87
199,88	38,50
200,10	39,73
200,32	59,80
200,54	13,93
200,75	41,98
200,97	48,74
201,19	27,85
201,41	35,84
201,63	18,43
201,85	52,63
202,06	28,67
202,28	47,10
202,50	21,91
202,72	17,82
202,94	26,83
203,16	48,74
203,38	65,74
203,59	21,71
203,81	56,73
204,03	56,52
204,25	60,21
204,47	42,39
204,69	53,86
204,90	43,21
205,12	59,80
205,34	17,00
205,56	43,21
205,78	37,68
206,00	50,58
206,21	66,35
206,43	51,20
206,65	32,77
206,87	56,93
207,09	23,96
207,30	63,90
207,52	50,38
207,74	55,50
207,96	31,13
208,18	19,46
208,40	29,90
208,61	69,63
208,83	62,05
209,05	65,13
209,27	53,04
209,49	34,00
209,70	76,18
209,92	52,22
210,14	64,31
210,36	39,32
210,58	68,61
210,79	23,14
211,01	56,73
211,23	81,10
211,45	9,83
211,67	21,30
211,88	34,00
212,10	72,29
212,32	15,97
212,54	64,92
212,76	39,12
212,97	43,21
213,19	72,09
213,41	68,81
213,63	84,58
213,85	29,90
214,06	50,99
214,28	52,63
214,50	58,16
214,72	29,08
214,94	23,76
215,15	71,27
215,37	64,31
215,59	44,65
215,81	58,98
216,02	30,72
216,24	37,89
216,46	36,45
216,68	71,47
216,90	68,20
217,11	50,99
217,33	48,74
217,55	69,02
217,77	66,76
217,98	33,79
218,20	57,34
218,42	42,80
218,64	43,42
218,85	64,51
219,07	42,19
219,29	36,04
219,51	78,23
219,73	22,73
219,94	39,73
220,16	78,44
220,38	62,05
220,60	67,38
220,81	24,58
221,03	43,01
221,25	63,08
221,47	45,06
221,68	61,03
221,90	37,07
222,12	51,81
222,34	27,44
222,55	36,66
222,77	33,18
222,99	53,25
223,21	14,34
223,42	67,17
223,64	18,84
223,86	37,89
224,08	27,24
224,29	82,74
224,51	51,61
224,73	43,62
224,94	32,36
225,16	60,01
225,38	64,51
225,60	27,44
225,81	51,81
226,03	40,55
226,25	14,95
226,47	40,34
226,68	54,27
226,90	45,46
227,12	52,02
227,33	28,26
227,55	49,77
227,77	35,84
227,99	13,93
228,20	66,35
228,42	63,28
228,64	43,83
228,86	59,60
229,07	79,05
229,29	36,04
229,51	41,37
229,72	26,42
229,94	27,85
230,16	69,84
230,38	28,88
230,59	40,55
230,81	-0,41
231,03	53,66
231,24	26,21
231,46	65,54
231,68	54,48
231,89	40,14
232,11	51,61
232,33	63,28
232,55	60,01
232,76	53,66
232,98	44,65
233,20	31,13
233,41	38,91
233,63	61,03
233,85	39,73
234,06	56,32
234,28	56,52
234,50	65,54
234,71	25,60
234,93	37,68
235,15	28,47
235,37	31,13
235,58	30,51
235,80	40,96
236,02	75,57
236,23	39,53
236,45	33,79
236,67	18,64
236,88	33,59
237,10	47,31
237,32	43,21
237,53	75,77
237,75	40,55
237,97	71,06
238,18	58,78
238,40	58,78
238,62	64,92
238,83	62,26
239,05	58,98
239,27	65,33
239,48	66,15
239,70	39,12
239,92	47,72
240,13	57,75
240,35	67,17
240,57	75,37
240,78	39,53
241,00	70,04
241,22	37,89
241,43	56,32
241,65	46,28
241,87	53,86
242,08	64,10
242,30	34,61
242,52	53,25
242,73	39,12
242,95	48,13
243,16	32,36
243,38	55,91
243,60	54,27
243,81	60,82
244,03	75,16
244,25	50,79
244,46	43,62
244,68	57,96
244,90	42,60
245,11	44,65
245,33	60,21
245,55	46,90
245,76	54,68
245,98	27,44
246,19	45,46
246,41	65,53
246,63	42,60
246,84	15,97
247,06	70,65
247,28	45,06
247,49	60,42
247,71	59,19
247,92	65,13
248,14	30,92
248,36	68,40
248,57	70,25
248,79	49,15
249,01	61,44
249,22	45,67
249,44	46,49
249,65	50,99
249,87	56,32
250,09	47,92
250,30	30,51
250,52	41,98
250,73	44,44
250,95	54,27
251,17	71,27
251,38	60,01
251,60	42,39
251,81	83,76
252,03	81,71
252,25	58,57
252,46	60,82
252,68	50,58
252,89	47,51
253,11	48,13
253,33	81,71
253,54	50,18
253,76	56,73
253,97	55,70
254,19	60,01
254,41	66,15
254,62	55,70
254,84	50,18
255,05	53,25
255,27	53,66
255,49	42,60
255,70	52,02
255,92	43,01
256,13	29,70
256,35	61,03
256,56	36,86
256,78	56,93
257,00	30,72
257,21	55,09
257,43	102,40
257,64	49,97
257,86	59,80
258,08	72,29
258,29	31,13
258,51	66,76
258,72	43,62
258,94	46,69
259,15	45,26
259,37	46,49
259,59	56,73
259,80	49,15
260,02	44,85
260,23	33,59
260,45	67,17
260,66	27,85
260,88	51,61
261,09	90,52
261,31	72,09
261,53	89,29
261,74	66,35
261,96	36,25
262,17	23,76
262,39	65,94
262,60	17,41
262,82	66,76
263,03	45,67
263,25	62,46
263,46	69,84
263,68	73,11
263,90	26,01
264,11	35,23
264,33	53,66
264,54	70,86
264,76	54,48
264,97	44,65
265,19	74,75
265,40	61,44
265,62	44,44
265,83	49,56
266,05	50,38
266,26	52,84
266,48	57,75
266,70	87,45
266,91	57,96
267,13	54,68
267,34	71,68
267,56	47,10
267,77	77,41
267,99	54,27
268,20	31,74
268,42	75,77
268,63	65,13
268,85	76,59
269,06	71,88
269,28	76,80
269,49	31,74
269,71	63,49
269,92	37,89
270,14	85,20
270,35	58,78
270,57	18,64
270,78	70,45
271,00	54,68
271,21	57,55
271,43	55,50
271,64	55,50
271,86	93,39
272,07	55,70
272,29	39,53
272,50	61,64
272,72	81,92
272,93	38,71
273,15	59,60
273,36	58,37
273,58	20,07
273,79	61,85
274,01	70,45
274,22	41,37
274,44	92,77
274,65	46,69
274,87	55,50
275,08	21,91
275,30	57,34
275,51	86,22
275,73	46,90
275,94	40,14
276,16	35,84
276,37	80,89
276,59	79,05
276,80	89,29
277,02	86,42
277,23	35,63
277,45	65,13
277,66	36,86
277,88	46,90
278,09	83,97
278,30	40,55
278,52	41,98
278,73	76,18
278,95	68,40
279,16	38,91
279,38	42,80
279,59	75,16
279,81	35,84
280,02	94,62
280,24	42,19
280,45	53,66
280,67	64,72
280,88	71,88
281,09	18,02
281,31	62,67
281,52	47,51
281,74	60,62
281,95	74,14
282,17	72,09
282,38	86,22
282,60	58,98
282,81	48,33
283,02	35,02
283,24	55,50
283,45	56,11
283,67	50,79
283,88	66,15
284,10	91,75
284,31	69,22
284,53	44,44
284,74	68,20
284,95	55,50
285,17	25,19
285,38	55,70
285,60	43,42
285,81	77,82
286,03	29,90
286,24	45,06
286,45	75,77
286,67	75,57
286,88	80,89
287,10	29,90
287,31	68,81
287,53	70,25
287,74	48,74
287,95	47,51
288,17	61,44
288,38	75,98
288,60	77,82
288,81	70,45
289,02	71,27
289,24	45,87
289,45	68,81
289,67	51,20
289,88	45,67
290,10	76,18
290,31	52,84
290,52	78,03
290,74	77,62
290,95	91,54
291,17	73,93
291,38	40,14
291,59	72,70
291,81	70,65
292,02	70,65
292,24	66,76
292,45	53,45
292,66	60,62
292,88	110,59
293,09	107,52
293,31	58,78
293,52	84,17
293,73	64,51
293,95	69,22
294,16	65,74
294,37	57,55
294,59	68,81
294,80	77,62
295,02	52,63
295,23	75,98
295,44	53,25
295,66	91,13
295,87	47,92
296,09	70,65
296,30	88,27
296,51	67,79
296,73	45,26
296,94	91,95
297,15	78,44
297,37	71,88
297,58	85,81
297,79	66,15
298,01	76,18
298,22	62,67
298,44	71,27
298,65	87,04
298,86	41,57
299,08	39,73
299,29	75,57
299,50	57,14
299,72	86,22
299,93	85,81
300,14	70,65
300,36	63,49
300,57	118,99
300,79	90,32
301,00	50,79
301,21	70,04
301,43	62,46
301,64	52,22
301,85	87,04
302,07	102,60
302,28	71,27
302,49	87,86
302,71	47,92
302,92	97,69
303,13	54,68
303,35	83,15
303,56	76,18
303,77	95,03
303,99	91,75
304,20	62,26
304,41	72,09
304,63	88,47
304,84	78,44
305,05	113,46
305,27	67,38
305,48	63,69
305,69	81,10
305,91	61,23
306,12	52,63
306,33	88,06
306,55	85,81
306,76	79,46
306,97	89,70
307,19	84,17
307,40	92,77
307,61	101,78
307,82	96,87
308,04	81,71
308,25	108,54
308,46	63,28
308,68	78,44
308,89	111,61
309,10	85,20
309,32	85,40
309,53	91,75
309,74	98,92
309,96	78,85
310,17	98,30
310,38	82,12
310,59	96,25
310,81	93,18
311,02	120,83
311,23	101,58
311,45	126,15
311,66	138,24
311,87	102,40
312,09	133,94
312,30	129,23
312,51	145,41
312,72	158,51
312,94	149,30
313,15	163,22
313,36	135,99
313,58	172,44
313,79	181,25
314,00	222,82
314,21	240,02
314,43	214,42
314,64	242,68
314,85	226,71
315,06	257,43
315,28	298,18
315,49	310,88
315,70	301,87
315,92	345,29
316,13	350,61
316,34	353,89
316,55	365,56
316,77	379,90
316,98	398,53
317,19	444,20
317,40	446,87
317,62	460,59
317,83	509,33
318,04	471,44
318,25	520,39
318,47	513,84
318,68	537,39
318,89	585,72
319,11	580,19
319,32	652,69
319,53	684,64
319,74	707,37
319,96	753,24
320,17	746,08
320,38	814,27
320,59	832,91
320,81	850,32
321,02	825,95
321,23	905,82
321,44	972,99
321,65	993,67
321,87	1042,62
322,08	1030,33
322,29	1096,48
322,50	1098,12
322,72	1138,88
322,93	1199,90
323,14	1272,20
323,35	1290,63
323,57	1359,85
323,78	1418,22
323,99	1429,28
324,20	1449,96
324,41	1477,61
324,63	1483,55
324,84	1456,11
325,05	1412,48
325,26	1461,02
325,48	1414,12
325,69	1474,54
325,90	1531,68
326,11	1588,20
326,32	1654,76
326,54	1761,66
326,75	1784,19
326,96	1877,78
327,17	1899,49
327,39	1949,05
327,60	2041,01
327,81	2018,48
328,02	2021,75
328,23	2175,35
328,45	2251,95
328,66	2400,83
328,87	2521,87
329,08	2542,14
329,29	2709,46
329,51	2723,80
329,72	2673,21
329,93	2756,57
330,14	2755,34
330,35	2784,62
330,56	2803,26
330,78	2856,51
330,99	2914,26
331,20	3004,57
331,41	3073,80
331,62	3158,17
331,84	3354,16
332,05	3498,14
332,26	3692,69
332,47	3852,64
332,68	4037,57
332,90	4123,18
333,11	4051,29
333,32	4027,33
333,53	3958,11
333,74	3833,39
333,95	3845,27
334,17	3726,69
334,38	3662,79
334,59	3784,65
334,80	3787,31
335,01	3695,35
335,22	3776,86
335,44	3898,10
335,65	3757,61
335,86	3916,54
336,07	3726,07
336,28	3828,27
336,49	3799,80
336,71	3826,83
336,92	3860,22
337,13	3998,04
337,34	3951,97
337,55	4151,85
337,76	4153,69
337,97	4031,84
338,19	4167,41
338,40	4065,22
338,61	4107,61
338,82	3934,15
339,03	3999,89
339,24	3890,53
339,45	3784,24
339,67	3853,05
339,88	3764,37
340,09	3865,13
340,30	3817,82
340,51	3905,48
340,72	4063,37
340,93	4067,47
341,15	4234,99
341,36	4270,01
341,57	4328,38
341,78	4425,87
341,99	4405,39
342,20	4605,88
342,41	4741,87
342,62	4750,26
342,84	4726,51
343,05	4834,64
343,26	4797,78
343,47	4838,53
343,68	4735,52
343,89	4708,69
344,10	4842,01
344,31	4736,54
344,53	4856,96
344,74	4878,06
344,95	4975,95
345,16	5002,16
345,37	5080,81
345,58	5099,44
345,79	5145,73
346,00	5155,56
346,21	4934,17
346,42	4860,65
346,64	4570,25
346,85	4707,05
347,06	4554,89
347,27	4646,43
347,48	4795,52
347,69	4732,45
347,90	4862,29
348,11	4987,01
348,32	4926,59
348,53	4986,60
348,75	5183,41
348,96	5103,54
349,17	5276,39
349,38	5213,92
349,59	5200,41
349,80	5332,71
350,01	5131,80
350,22	5350,11
350,43	5147,16
350,64	5462,34
350,85	5294,61
351,06	5292,16
351,28	5315,91
351,49	5329,84
351,70	5443,71
351,91	5396,60
352,12	5521,53
352,33	5416,88
352,54	5902,86
352,75	5874,19
352,96	5948,33
353,17	6200,63
353,38	6100,69
353,59	6159,88
353,80	6214,36
354,01	6060,55
354,22	6039,87
354,44	5962,05
354,65	5960,82
354,86	5903,47
355,07	5828,72
355,28	5926,62
355,49	6063,01
355,70	6141,86
355,91	6388,43
356,12	6376,15
356,33	6499,84
356,54	6640,95
356,75	6722,66
356,96	6890,39
357,17	6764,03
357,38	6949,37
357,59	6694,81
357,80	6807,24
358,01	7007,53
358,22	6607,77
358,43	6694,61
358,64	6526,67
358,85	6465,03
359,07	6103,36
359,28	6095,78
359,49	5875,42
359,70	5730,42
359,91	5793,29
360,12	5520,30
360,33	5341,31
360,54	5297,69
360,75	5177,88
360,96	5162,72
361,17	5033,50
361,38	5344,99
361,59	5777,73
361,80	5966,35
362,01	6167,25
362,22	6392,12
362,43	6673,72
362,64	6570,09
362,85	6612,89
363,06	6364,27
363,27	6396,01
363,48	6400,11
363,69	6357,92
363,90	6304,26
364,11	6469,53
364,32	6414,03
364,53	6539,78
364,74	6652,21
364,95	6932,78
365,16	6924,59
365,37	7036,82
365,58	7068,77
365,79	7163,39
366,00	7264,55
366,21	7320,87
366,42	7365,93
366,63	7297,53
366,84	7278,89
367,05	7325,38
367,26	7471,81
367,47	7576,87
367,68	7743,57
367,89	7946,94
368,10	7810,13
368,31	7672,31
368,52	7878,13
368,73	8597,37
368,94	8587,13
369,15	8386,23
369,36	8729,67
369,57	8794,39
369,78	8772,68
369,99	9022,12
370,20	8837,19
370,40	8736,23
370,61	8830,64
370,82	8842,11
371,03	8766,54
371,24	9015,57
371,45	9208,28
371,66	9172,03
371,87	9193,13
372,08	9660,06
372,29	9561,35
372,50	9148,89
372,71	9445,44
372,92	9380,93
373,13	9223,03
373,34	9363,93
373,55	9481,48
373,76	9538,82
373,97	9248,22
374,18	9306,38
374,39	9060,62
374,60	9123,09
374,81	8947,17
375,01	8605,16
375,22	8805,04
375,43	8337,90
375,64	8384,18
375,85	7834,50
376,06	7928,30
376,27	7994,86
376,48	7935,06
376,69	7524,85
376,90	7664,93
377,11	7883,04
377,32	7811,98
377,53	8183,07
377,74	8522,62
377,94	8587,34
378,15	8871,80
378,36	8704,07
378,57	9099,13
378,78	8867,09
378,99	9267,47
379,20	9548,04
379,41	9902,95
379,62	10097,51
379,83	10446,48
380,04	10825,15
380,25	11028,11
380,45	10991,86
380,66	11186,82
380,87	10904,00
381,08	10696,13
381,29	10660,09
381,50	10057,37
381,71	10097,71
381,92	10123,93
382,13	10130,89
382,34	9822,67
382,55	10124,75
382,75	10243,73
382,96	10251,52
383,17	10385,04
383,38	10250,90
383,59	9920,98
383,80	9588,18
384,01	9287,13
384,22	9151,35
384,43	8634,44
384,63	8066,33
384,84	7825,29
385,05	7424,50
385,26	7258,00
385,47	7134,51
385,68	7117,10
385,89	7106,25
386,10	7221,75
386,30	7729,44
386,51	7707,33
386,72	8277,48
386,93	8442,14
387,14	8610,07
387,35	9078,03
387,56	8800,53
387,77	8855,01
387,97	9100,97
388,18	9283,85
388,39	9207,87
388,60	9328,29
388,81	9229,58
389,02	9458,95
389,23	9433,35
389,43	9223,44
389,64	9334,85
389,85	9070,04
390,06	9193,13
390,27	9493,15
390,48	9236,95
390,69	9384,61
390,89	9915,45
391,10	9853,60
391,31	9889,03
391,52	10655,99
391,73	10971,38
391,94	10973,43
392,14	11177,81
392,35	11444,05
392,56	11783,60
392,77	12143,64
392,98	12021,58
393,19	12386,93
393,39	12648,05
393,60	12568,59
393,81	13001,32
394,02	12163,91
394,23	11878,22
394,44	11428,08
394,64	10605,82
394,85	10290,22
395,06	8899,86
395,27	8303,90
395,48	8039,71
395,69	7492,29
395,89	8063,26
396,10	8467,74
396,31	8688,92
396,52	9422,70
396,73	9973,81
396,93	10880,24
397,14	11061,28
397,35	12022,19
397,56	11985,12
397,77	11913,03
397,97	11938,63
398,18	11594,78
398,39	10352,89
398,60	9861,17
398,81	9129,44
399,01	9319,08
399,22	9155,44
399,43	9833,94
399,64	10430,10
399,85	11070,91
400,05	11982,05
400,26	12826,43
400,47	13400,47
400,68	14138,77
400,89	14500,23
401,09	15270,88
401,30	16052,39
401,51	16002,83
401,72	16465,87
401,93	16992,00
402,13	17195,56
402,34	17164,23
402,55	17513,82
402,76	17633,42
402,96	17785,79
403,17	17439,07
403,38	18150,33
403,59	17934,27
403,80	19356,99
404,00	18721,30
404,21	18513,02
404,42	19407,99
404,63	19402,87
404,83	19309,68
405,04	18123,29
405,25	18413,70
405,46	18471,24
405,66	18162,21
405,87	18799,33
406,08	18624,02
406,29	19112,26
406,49	18214,43
406,70	18379,91
406,91	17919,93
407,12	19125,16
407,32	18031,14
407,53	19133,35
407,74	18343,25
407,95	17518,32
408,15	18126,37
408,36	17673,56
408,57	17859,93
408,78	18086,43
408,98	18010,45
409,19	17515,05
409,40	18485,38
409,61	17950,86
409,81	18086,64
410,02	18530,23
410,23	18744,44
410,44	19954,79
410,64	19519,19
410,85	19261,76
411,06	19689,17
411,26	19229,20
411,47	18991,63
411,68	18767,38
411,89	17752,82
412,09	18237,98
412,30	18099,33
412,51	17607,00
412,72	18072,10
412,92	19421,91
413,13	19217,32
413,34	19512,02
413,54	19735,66
413,75	20209,36
413,96	20017,87
414,17	19781,74
414,37	19867,55
414,58	19799,35
414,79	20137,47
414,99	19700,44
415,20	20167,17
415,41	20038,56
415,61	20282,06
415,82	20387,73
416,03	19543,36
416,24	19950,49
416,44	20103,89
416,65	20403,50
416,86	20749,20
417,06	20042,24
417,27	19778,67
417,48	19723,17
417,68	20405,55
417,89	20777,46
418,10	20211,40
418,30	20680,80
418,51	20423,16
418,72	20182,53
418,92	21079,33
419,13	19636,54
419,34	20123,55
419,55	19554,82
419,75	19904,82
419,96	19544,58
420,17	20387,73
420,37	20089,75
420,58	19185,37
420,79	19119,43
420,99	20172,90
421,20	20263,01
421,41	19825,98
421,61	19992,89
421,82	19026,65
422,03	19892,33
422,23	19644,12
422,44	20462,28
422,65	20528,43
422,85	20573,89
423,06	20661,14
423,26	21101,66
423,47	21485,44
423,68	20427,05
423,88	20921,02
424,09	20106,96
424,30	20011,32
424,50	20142,59
424,71	20322,81
424,92	19776,82
425,12	19581,45
425,33	20640,25
425,54	20688,79
425,74	20915,50
425,95	20122,11
426,15	21066,02
426,36	19833,55
426,57	20798,56
426,77	20020,33
426,98	20466,79
427,19	20189,29
427,39	20727,70
427,60	19791,37
427,81	20393,47
428,01	20186,42
428,22	21419,91
428,42	19603,16
428,63	20309,09
428,84	20163,89
429,04	19441,37
429,25	19536,39
429,45	19223,05
429,66	20069,89
429,87	20153,04
430,07	19942,91
430,28	19731,36
430,49	19517,55
430,69	19862,63
430,90	19055,33
431,10	18776,80
431,31	18401,20
431,52	18610,92
431,72	17053,03
431,93	16407,30
432,13	16457,48
432,34	16450,31
432,55	15568,86
432,75	16968,65
432,96	17399,34
433,16	17853,78
433,37	19175,95
433,58	20156,11
433,78	20123,75
433,99	19033,82
434,19	20611,58
434,40	20670,35
434,60	21442,85
434,81	21535,21
435,02	21288,23
435,22	21475,41
435,43	20753,91
435,63	20524,13
435,84	20845,66
436,05	21261,40
436,25	19938,20
436,46	21684,51
436,66	21680,00
436,87	21769,50
437,07	21347,62
437,28	21767,04
437,48	22867,00
437,69	22217,39
437,90	22992,95
438,10	23207,99
438,31	23186,28
438,51	24332,33
438,72	23333,94
438,92	23309,98
439,13	23347,87
439,34	22871,92
439,54	22709,93
439,75	22023,24
439,95	21558,56
440,16	21710,52
440,36	21799,19
440,57	21405,37
440,77	22432,02
440,98	21916,75
441,18	21820,90
441,39	21968,77
441,60	23307,32
441,80	22553,26
442,01	21769,29
442,21	22946,88
442,42	22186,26
442,62	22820,52
442,83	23172,36
443,03	23581,34
443,24	23776,30
443,44	23747,02
443,65	24237,10
443,85	24143,50
444,06	24590,58
444,26	24509,27
444,47	24094,35
444,67	25145,17
444,88	24394,38
445,09	23966,15
445,29	24476,30
445,50	24323,32
445,70	24059,54
445,91	24588,53
446,11	24127,12
446,32	24783,08
446,52	24592,01
446,73	24487,77
446,93	24333,35
447,14	23853,92
447,34	23828,12
447,55	22992,34
447,75	23672,47
447,96	23991,95
448,16	23436,95
448,37	24015,10
448,57	23954,27
448,78	24566,82
448,98	24453,16
449,19	24498,21
449,39	25039,49
449,60	24667,37
449,80	25201,48
450,01	25213,36
450,21	25083,52
450,42	25348,32
450,62	25091,71
450,83	25083,93
451,03	25070,00
451,23	25264,15
451,44	25431,68
451,64	26189,22
451,85	25743,58
452,05	26672,74
452,26	26563,79
452,46	26687,08
452,67	26442,35
452,87	26132,29
453,08	26267,25
453,28	25469,77
453,49	26601,68
453,69	25696,48
453,90	25880,80
454,10	26026,20
454,31	25259,44
454,51	24890,60
454,71	24669,01
454,92	24466,47
455,12	24279,90
455,33	25656,75
455,53	25813,83
455,74	26511,98
455,94	27071,48
456,15	27081,52
456,35	27728,68
456,55	27124,73
456,76	27696,32
456,96	29355,58
457,17	27168,97
457,37	30350,90
457,58	28938,62
457,78	30531,94
457,99	29726,88
458,19	27761,65
458,39	30065,82
458,60	30770,53
458,80	30768,07
459,01	29797,74
459,21	29757,19
459,42	30653,18
459,62	28498,30
459,82	31231,93
460,03	29789,96
460,23	30528,05
460,44	30191,97
460,64	28324,43
460,85	31288,46
461,05	29109,62
461,25	28979,99
461,46	31335,56
461,66	30551,60
461,87	29536,01
462,07	30061,93
462,27	28994,53
462,48	28898,27
462,68	30271,64
462,89	29862,66
463,09	29556,69
463,29	30505,31
463,50	30188,49
463,70	31520,08
463,91	30102,48
464,11	29713,36
464,31	31079,77
464,52	31210,02
464,72	31717,92
464,93	30860,64
465,13	32431,84
465,33	30421,96
465,54	29685,51
465,74	29289,84
465,95	30500,60
466,15	30800,84
466,35	31002,56
466,56	30381,62
466,76	30885,83
466,96	30537,47
467,17	30824,59
467,37	30893,20
467,58	30743,70
467,78	30520,26
467,98	31027,75
468,19	29500,99
468,39	30750,87
468,59	31302,38
468,80	30785,27
469,00	30342,70
469,21	30389,19
469,41	30694,96
469,61	32112,97
469,82	30565,93
470,02	32313,67
470,22	33469,54
470,43	32485,90
470,63	31495,92
470,83	34014,92
471,04	32092,90
471,24	32442,90
471,45	31444,72
471,65	31843,46
471,85	31476,87
472,06	32249,77
472,26	32366,30
472,46	32578,88
472,67	33461,35
472,87	33223,99
473,07	33539,38
473,28	33477,12
473,48	34878,34
473,68	35109,56
473,89	35009,00
474,09	34791,30
474,29	34492,30
474,50	35253,53
474,70	34654,29
474,90	35367,19
475,11	35844,98
475,31	35849,49
475,51	35990,39
475,72	36200,51
475,92	36550,92
476,12	35985,88
476,33	37195,00
476,53	37098,34
476,73	37398,37
476,93	37505,68
477,14	36777,83
477,34	36625,05
477,54	37222,04
477,75	37446,29
477,95	36958,67
478,15	37290,44
478,36	37741,40
478,56	38212,84
478,76	39023,23
478,97	39716,26
479,17	39040,63
479,37	39209,59
479,57	39476,65
479,78	39738,17
479,98	39288,03
480,18	40117,66
480,39	40640,71
480,59	40695,19
480,79	40765,02
480,99	41344,80
481,20	41337,23
481,40	41718,15
481,60	42305,71
481,81	41750,10
482,01	41890,59
482,21	42188,36
482,41	42492,07
482,62	42995,26
482,82	43255,56
483,02	43810,15
483,23	43722,90
483,43	44452,39
483,63	43711,44
483,83	44208,68
484,04	44895,78
484,24	44301,25
484,44	45147,68
484,64	44381,94
484,85	44605,78
485,05	44861,78
485,25	44933,46
485,45	44623,60
485,66	44800,14
485,86	44963,56
486,06	44914,41
486,26	44674,39
486,47	44507,69
486,67	43815,06
486,87	42999,15
487,07	41558,00
487,28	40557,15
487,48	39835,45
487,68	40663,03
487,88	40209,41
488,09	40681,67
488,29	41119,12
488,49	42183,65
488,69	42199,62
488,90	43065,92
489,10	43206,41
489,30	43664,13
489,50	44232,23
489,71	44397,30
489,91	44795,22
490,11	44540,86
490,31	44909,50
490,52	45181,67
490,72	45872,86
490,92	47090,38
491,12	47390,41
491,32	47723,61
491,53	48145,70
491,73	47714,40
491,93	48173,34
492,13	48222,29
492,33	47878,85
492,54	47393,27
492,74	47769,08
492,94	47225,34
493,14	47041,02
493,35	46299,45
493,55	46707,00
493,75	47060,07
493,95	47084,24
494,15	47301,93
494,36	48189,73
494,56	47801,23
494,76	47963,43
494,96	47885,40
495,16	47978,58
495,37	48375,89
495,57	48583,96
495,77	49133,43
495,97	49235,01
496,17	49755,81
496,37	49367,31
496,58	49416,26
496,78	48699,47
496,98	49125,24
497,18	49060,93
497,38	48998,88
497,59	49343,55
497,79	49536,06
497,99	49426,70
498,19	49566,58
498,39	49455,78
498,59	49951,80
498,80	49328,60
499,00	49310,38
499,20	48744,32
499,40	47891,54
499,60	47718,49
499,80	48045,76
500,01	48068,90
500,21	48102,49
500,41	48089,79
500,61	48617,55
500,81	48307,69
501,01	47940,08
501,22	47951,75
501,42	47376,07
501,62	46673,82
501,82	46599,89
502,02	46007,21
502,22	45638,98
502,42	45547,03
502,63	45578,98
502,83	44934,89
503,03	44963,15
503,23	45125,15
503,43	45102,21
503,63	45043,23
503,83	45480,06
504,04	45077,43
504,24	45521,23
504,44	45108,35
504,64	45111,63
504,84	44573,02
505,04	44093,38
505,24	44272,99
505,44	44350,20
505,65	43869,74
505,85	44310,26
506,05	44413,68
506,25	44336,07
506,45	44298,59
506,65	44826,55
506,85	45364,35
507,05	45675,44
507,26	45598,23
507,46	45437,67
507,66	45667,66
507,86	45071,90
508,06	45266,66
508,26	44912,16
508,46	44766,75
508,66	44371,50
508,86	44415,53
509,06	44363,30
509,27	44111,81
509,47	44100,55
509,67	44494,78
509,87	44699,17
510,07	44948,61
510,27	45441,97
510,47	45343,26
510,67	45239,83
510,87	45030,53
511,07	44776,58
511,28	44906,83
511,48	44359,62
511,68	44763,68
511,88	44930,59
512,08	44924,65
512,28	45171,02
512,48	45162,63
512,68	45494,40
512,88	45607,85
513,08	45891,09
513,28	45399,58
513,48	45073,54
513,68	45197,03
513,89	44686,68
514,09	44277,90
514,29	45108,56
514,49	44562,78
514,69	44116,32
514,89	44327,87
515,09	44179,40
515,29	44155,64
515,49	43978,49
515,69	43911,73
515,89	44341,19
516,09	44456,49
516,29	44559,29
516,49	44774,54
516,69	45031,15
516,89	44807,71
517,09	44326,03
517,29	44095,43
517,50	43045,23
517,70	41724,91
517,90	40786,94
518,10	39960,38
518,30	40555,93
518,50	40235,83
518,70	40860,46
518,90	41525,02
519,10	41558,82
519,30	41410,13
519,50	41303,84
519,70	41567,42
519,90	41699,72
520,10	42717,15
520,30	42762,00
520,50	43162,99
520,70	44005,93
520,90	44092,56
521,10	44624,01
521,30	44878,16
521,50	45440,74
521,70	45343,67
521,90	45389,54
522,10	45939,22
522,30	45454,46
522,50	46364,37
522,70	46213,44
522,90	46683,24
523,10	46261,57
523,30	46603,37
523,50	46100,19
523,70	46057,38
523,90	45666,02
524,10	45916,48
524,30	45633,86
524,50	46150,57
524,70	46367,86
524,90	46988,39
525,10	47427,47
525,30	47106,15
525,50	47990,05
525,70	47884,79
525,90	47380,58
526,10	47348,01
526,30	47708,25
526,50	47589,88
526,70	47451,44
526,90	47136,05
527,10	46262,39
527,30	45702,88
527,50	45189,66
527,70	44056,11
527,90	43425,54
528,10	43478,58
528,30	43793,97
528,50	44095,22
528,70	44414,30
528,90	45241,68
529,10	45389,54
529,30	45550,92
529,50	46419,05
529,70	46501,18
529,90	47278,59
530,10	47475,19
530,29	47166,77
530,49	47218,17
530,69	47170,86
530,89	47296,20
531,09	46771,92
531,29	46776,22
531,49	47515,74
531,69	47556,91
531,89	47833,59
532,09	47928,61
532,29	47738,77
532,49	47703,13
532,69	47637,60
532,89	47346,38
533,09	46738,13
533,29	46466,98
533,49	45442,79
533,68	45223,45
533,88	45448,52
534,08	45334,25
534,28	45023,98
534,48	45267,48
534,68	45691,41
534,88	45313,97
535,08	45565,87
535,28	45511,60
535,48	45805,48
535,68	45687,52
535,88	45919,56
536,08	46567,94
536,27	46608,29
536,47	46566,92
536,67	47394,30
536,87	47015,42
537,07	46613,61
537,27	46694,71
537,47	46242,11
537,67	45531,67
537,87	45437,05
538,07	45662,74
538,27	45317,86
538,46	45657,01
538,66	45679,53
538,86	45341,00
539,06	45977,72
539,26	45926,93
539,46	45652,50
539,66	45552,56
539,86	45371,72
540,06	45237,17
540,25	44579,36
540,45	44491,71
540,65	44167,93
540,85	44035,63
541,05	43905,58
541,25	43338,50
541,45	43255,76
541,65	42837,77
541,85	42886,51
542,04	43004,48
542,24	43064,89
542,44	43491,48
542,64	43533,88
542,84	43639,14
543,04	43628,49
543,24	43475,30
543,43	43682,15
543,63	43414,28
543,83	42993,21
544,03	42908,22
544,23	42861,32
544,43	43142,10
544,63	42987,68
544,82	43766,94
545,02	43184,90
545,22	43688,70
545,42	43015,33
545,62	43610,27
545,82	43254,12
546,02	43226,89
546,21	43181,22
546,41	43028,03
546,61	42599,18
546,81	43187,97
547,01	42646,70
547,21	42988,30
547,40	42666,77
547,60	42773,06
547,80	42174,23
548,00	42594,88
548,20	42202,29
548,40	41700,13
548,59	41800,48
548,79	41611,04
548,99	41691,11
549,19	41569,26
549,39	41715,28
549,59	41913,73
549,78	41595,88
549,98	42012,24
550,18	41893,25
550,38	41725,72
550,58	41657,32
550,77	41708,52
550,97	41682,31
551,17	41124,44
551,37	41644,83
551,57	41132,43
551,76	40899,57
551,96	40825,85
552,16	40688,02
552,36	41161,10
552,56	40974,53
552,75	41271,69
552,95	41046,62
553,15	41121,57
553,35	40900,80
553,55	40142,03
553,74	40502,27
553,94	40048,64
554,14	39816,61
554,34	39931,09
554,54	40075,68
554,73	40335,77
554,93	40226,82
555,13	40577,22
555,33	40229,07
555,53	40533,19
555,72	40050,90
555,92	40315,08
556,12	40185,45
556,32	40001,34
556,51	40011,78
556,71	39913,07
556,91	39300,11
557,11	39259,15
557,30	39228,43
557,50	38801,23
557,70	38285,14
557,90	38613,84
558,10	38327,53
558,29	38192,16
558,49	38328,35
558,69	38122,94
558,89	37890,70
559,08	37812,88
559,28	37528,21
559,48	37049,19
559,68	36883,30
559,87	36863,64
560,07	36545,39
560,27	36740,35
560,47	36568,94
560,66	36657,00
560,86	36404,49
561,06	36390,56
561,25	36864,87
561,45	37131,31
561,65	37176,16
561,85	37112,27
562,04	36967,88
562,24	36843,37
562,44	36730,73
562,64	36211,36
562,83	36213,82
563,03	36080,09
563,23	36446,68
563,42	36192,52
563,62	36662,74
563,82	36246,38
564,02	36520,81
564,21	36324,00
564,41	36109,38
564,61	36037,49
564,80	35865,87
565,00	35873,65
565,20	35667,83
565,40	35826,55
565,59	35725,79
565,79	35732,96
565,99	35520,99
566,18	35284,86
566,38	34831,65
566,58	34546,78
566,78	34412,63
566,97	34571,35
567,17	34661,67
567,37	34739,08
567,56	34723,31
567,76	34791,10
567,96	35071,87
568,15	34748,70
568,35	34766,93
568,55	34787,82
568,74	34289,76
568,94	34363,28
569,14	33955,12
569,33	33555,35
569,53	33393,77
569,73	33727,59
569,92	33174,64
570,12	33304,07
570,32	33417,73
570,52	33116,68
570,71	33209,45
570,91	32761,15
571,11	32812,35
571,30	32238,10
571,50	32250,39
571,70	32151,27
571,89	31752,73
572,09	31941,35
572,28	32117,07
572,48	32235,85
572,68	32159,25
572,87	32755,01
573,07	32826,89
573,27	32477,92
573,46	32718,55
573,66	32949,36
573,86	32674,73
574,05	32899,59
574,25	32474,64
574,45	32517,24
574,64	32497,99
574,84	32438,80
575,04	32407,67
575,23	32248,95
575,43	32257,56
575,62	32185,26
575,82	31707,47
576,02	31537,69
576,21	31603,02
576,41	31499,60
576,61	31495,51
576,80	31440,62
577,00	31388,19
577,19	31407,44
577,39	31653,81
577,59	31682,49
577,78	31683,31
577,98	31692,11
578,18	31411,54
578,37	31404,99
578,57	31332,28
578,76	31128,51
578,96	30845,89
579,16	30864,12
579,35	31104,34
579,55	30730,59
579,74	30689,02
579,94	30921,26
580,14	31246,68
580,33	31523,56
580,53	31616,54
580,72	31466,02
580,92	31814,17
581,12	31614,90
581,31	31754,78
581,51	32014,46
581,70	31916,36
581,90	32153,31
582,10	32009,96
582,29	32496,96
582,49	32413,82
582,68	32777,33
582,88	32834,06
583,07	32774,87
583,27	32797,20
583,47	32860,07
583,66	33012,85
583,86	32907,58
584,05	32921,30
584,25	32975,78
584,44	32988,27
584,64	32950,79
584,84	33106,64
585,03	33002,20
585,23	32714,87
585,42	32942,81
585,62	32599,16
585,81	32572,94
586,01	32386,37
586,20	32262,27
586,40	32035,76
586,60	31711,57
586,79	31959,58
586,99	31917,18
587,18	32105,80
587,38	32164,99
587,57	32175,02
587,77	32391,49
587,96	32335,38
588,16	32111,54
588,35	32042,31
588,55	32156,59
588,75	31468,27
588,94	31159,84
589,14	30670,58
589,33	29768,45
589,53	29237,01
589,72	28449,56
589,92	28373,79
590,11	27849,92
590,31	27922,01
590,50	28316,65
590,70	28383,41
590,89	29061,70
591,09	29120,07
591,28	29356,20
591,48	29704,56
591,67	29453,27
591,87	29873,52
592,06	29703,74
592,26	29634,11
592,45	29378,93
592,65	29666,88
592,84	29628,58
593,04	29575,74
593,23	29626,12
593,43	29964,45
593,62	29775,21
593,82	29854,67
594,01	29749,20
594,21	29847,30
594,40	29676,71
594,60	29604,41
594,79	29386,71
594,99	28898,89
595,18	29146,90
595,38	28873,29
595,57	28886,60
595,77	29127,85
595,96	29029,96
596,16	29138,09
596,35	29061,50
596,55	29071,12
596,74	29318,31
596,94	29192,98
597,13	29200,55
597,33	29238,03
597,52	29102,46
597,72	28976,30
597,91	29046,96
598,11	29047,16
598,30	28900,73
598,50	29083,61
598,69	28745,08
598,88	28694,09
599,08	28463,49
599,27	28626,71
599,47	28476,19
599,66	28560,15
599,86	28610,12
600,05	28566,50
600,25	28727,68
600,44	28317,67
600,64	28386,49
600,83	28407,78
601,02	28417,00
601,22	28209,75
601,41	27784,59
601,61	28105,71
601,80	27926,51
602,00	28068,23
602,19	27658,84
602,38	27506,06
602,58	27319,49
602,77	27356,15
602,97	27487,43
603,16	27818,79
603,36	27396,50
603,55	27839,06
603,74	27618,50
603,94	27863,23
604,13	27899,07
604,33	27858,11
604,52	27793,80
604,72	27901,32
604,91	27752,43
605,10	27934,70
605,30	27642,25
605,49	27604,16
605,69	27804,25
605,88	27353,90
606,07	27611,53
606,27	27476,37
606,46	27347,55
606,66	27248,43
606,85	26964,99
607,04	27136,20
607,24	26973,59
607,43	27228,36
607,63	27090,33
607,82	27069,23
608,01	27097,90
608,21	26754,25
608,40	26856,04
608,60	26530,21
608,79	26608,85
608,98	26281,99
609,18	26525,09
609,37	26161,98
609,57	26008,79
609,76	26139,04
609,95	26023,54
610,15	26111,40
610,34	25918,27
610,53	25681,73
610,73	25545,13
610,92	25665,35
611,11	25608,01
611,31	25545,34
611,50	25646,10
611,70	25749,93
611,89	25739,69
612,08	25725,15
612,28	25617,84
612,47	25475,71
612,66	25399,11
612,86	25311,87
613,05	25341,97
613,24	25319,04
613,44	25246,33
613,63	25191,24
613,82	25231,18
614,02	24999,76
614,21	24784,72
614,41	24899,00
614,60	24955,32
614,79	24760,56
614,99	24977,85
615,18	25276,85
615,37	25092,94
615,57	25598,59
615,76	25135,74
615,95	25122,02
616,15	24915,59
616,34	24922,76
616,53	24855,58
616,73	24883,84
616,92	24526,88
617,11	24595,29
617,30	24688,26
617,50	24636,04
617,69	24870,94
617,88	25032,32
618,08	25099,50
618,27	25384,98
618,46	25635,04
618,66	25557,01
618,85	25746,04
619,04	25756,07
619,24	25978,48
619,43	25915,20
619,62	25923,60
619,82	25993,02
620,01	25869,12
620,20	26242,26
620,39	26103,41
620,59	26287,32
620,78	26479,21
620,97	26622,77
621,17	26554,58
621,36	26759,17
621,55	26545,98
621,74	26531,84
621,94	26356,33
622,13	26388,90
622,32	26311,28
622,52	26222,19
622,71	26417,36
622,90	26239,80
623,09	26190,65
623,29	26229,56
623,48	26156,66
623,67	26287,93
623,86	26032,35
624,06	26106,89
624,25	26112,22
624,44	26057,54
624,64	25979,92
624,83	25988,52
625,02	25493,52
625,21	25663,51
625,41	25720,44
625,60	25575,24
625,79	25338,90
625,98	25346,48
626,18	25699,35
626,37	25260,88
626,56	25314,94
626,75	25812,19
626,95	25557,22
627,14	25586,91
627,33	25728,63
627,52	25568,89
627,72	25173,22
627,91	24651,40
628,10	24373,49
628,29	23932,36
628,49	23678,00
628,68	23592,60
628,87	23750,09
629,06	24233,61
629,25	24157,22
629,45	24068,96
629,64	24072,03
629,83	24163,37
630,02	23878,29
630,22	23777,12
630,41	23961,03
630,60	23722,85
630,79	23856,58
630,98	23938,30
631,18	24074,08
631,37	24122,00
631,56	24250,82
631,75	24179,34
631,94	23984,99
632,14	24151,49
632,33	23919,25
632,52	24197,16
632,71	24110,74
632,90	24475,48
633,10	24519,31
633,29	24453,77
633,48	24551,87
633,67	24443,12
633,86	24434,11
634,06	24528,32
634,25	24306,93
634,44	24571,73
634,63	24241,60
634,82	24560,47
635,02	24449,27
635,21	24568,66
635,40	24805,20
635,59	24616,58
635,78	24753,39
635,97	24697,48
636,17	24228,29
636,36	24682,73
636,55	24294,23
636,74	24536,71
636,93	24196,34
637,12	24599,59
637,32	24914,15
637,51	24524,84
637,70	24626,82
637,89	24861,93
638,08	24851,08
638,27	24886,10
638,47	24805,00
638,66	24910,67
638,85	24709,36
639,04	24837,56
639,23	24677,00
639,42	24653,65
639,62	24759,53
639,81	24679,25
640,00	24454,59
640,19	24329,87
640,38	24199,62
640,57	24307,55
640,76	24137,15
640,95	24223,78
641,15	24130,60
641,34	24081,65
641,53	24082,27
641,72	23850,03
641,91	24002,60
642,10	23915,77
642,29	23957,55
642,49	24191,02
642,68	23916,79
642,87	24245,70
643,06	24356,49
643,25	24266,79
643,44	24180,78
643,63	24003,42
643,82	24107,46
644,01	24242,63
644,21	24065,07
644,40	24153,95
644,59	23862,11
644,78	24065,89
644,97	23723,47
645,16	23940,55
645,35	23797,60
645,54	23874,61
645,73	23596,08
645,92	23754,39
646,12	23459,89
646,31	23303,02
646,50	23179,93
646,69	23312,64
646,88	22973,91
647,07	23055,62
647,26	22867,00
647,45	22769,73
647,64	22514,96
647,83	22731,63
648,02	22569,43
648,22	22581,72
648,41	22433,04
648,60	22478,51
648,79	22427,31
648,98	22439,18
649,17	22215,34
649,36	22152,47
649,55	21821,31
649,74	21615,90
649,93	21695,16
650,12	21696,18
650,31	21939,89
650,50	21901,18
650,69	22379,18
650,88	22669,38
651,08	22459,25
651,27	22548,55
651,46	22351,53
651,65	22252,61
651,84	21902,00
652,03	21916,95
652,22	21810,87
652,41	21974,50
652,60	21952,59
652,79	22115,81
652,98	22152,47
653,17	22105,98
653,36	22170,70
653,55	22125,44
653,74	22194,66
653,93	22253,84
654,12	22048,84
654,31	22139,36
654,50	22120,11
654,69	21825,00
654,88	21705,19
655,07	21599,31
655,26	21223,51
655,45	21143,64
655,64	20877,20
655,83	20493,20
656,02	19879,63
656,21	19261,35
656,40	18598,83
656,59	18467,35
656,78	18148,48
656,97	18500,94
657,17	18851,76
657,36	19117,99
657,55	19548,27
657,74	20042,86
657,93	20213,04
658,12	20471,70
658,31	20648,85
658,50	20906,48
658,69	20904,85
658,87	21265,29
659,06	20969,36
659,25	21027,72
659,44	20986,15
659,63	21058,85
659,82	21064,18
660,01	20968,74
660,20	21218,80
660,39	21134,63
660,58	21291,71
660,77	21229,45
660,96	21317,31
661,15	21027,31
661,34	21365,64
661,53	21279,42
661,72	21205,69
661,91	21442,85
662,10	21293,55
662,29	21409,67
662,48	21161,87
662,67	21307,48
662,86	21191,97
663,05	21084,25
663,24	21066,02
663,43	20915,70
663,62	20847,50
663,81	20812,69
664,00	20838,29
664,19	20658,07
664,38	20699,84
664,57	20622,43
664,76	20778,08
664,94	20769,88
665,13	20593,96
665,32	20619,77
665,51	20832,35
665,70	20628,98
665,89	20658,88
666,08	20506,72
666,27	20640,86
666,46	20447,74
666,65	20318,31
666,84	20334,28
667,03	20442,62
667,22	20230,86
667,41	20346,77
667,60	20308,68
667,78	20165,53
667,97	20167,17
668,16	20174,34
668,35	20102,86
668,54	20012,14
668,73	20237,21
668,92	20052,28
669,11	20281,65
669,30	20045,72
669,49	20044,49
669,68	19939,43
669,86	19976,71
670,05	19857,10
670,24	19671,97
670,43	19677,91
670,62	19714,57
670,81	19604,39
671,00	19650,87
671,19	19610,53
671,38	19447,10
671,57	19488,06
671,75	19430,72
671,94	19216,09
672,13	19294,53
672,32	19250,70
672,51	19117,58
672,70	19310,09
672,89	19255,21
673,08	19254,39
673,26	19299,85
673,45	19111,85
673,64	19275,89
673,83	19152,81
674,02	19103,25
674,21	19141,75
674,40	19057,99
674,59	18968,49
674,77	19015,39
674,96	18871,42
675,15	18856,47
675,34	18910,94
675,53	18717,41
675,72	18665,19
675,91	18721,71
676,09	18654,13
676,28	18793,39
676,47	18616,65
676,66	18613,17
676,85	18686,28
677,04	18623,82
677,22	18450,36
677,41	18506,26
677,60	18574,67
677,79	18330,34
677,98	18320,72
678,17	18334,85
678,36	18411,65
678,54	18301,47
678,73	18219,14
678,92	18278,53
679,11	18306,79
679,30	18182,69
679,48	18301,47
679,67	18119,61
679,86	18373,97
680,05	17942,87
680,24	17978,71
680,43	17996,93
680,61	17908,46
680,80	17919,32
680,99	17839,24
681,18	17857,67
681,37	17792,75
681,55	17917,27
681,74	17612,94
681,93	17844,57
682,12	17751,18
682,31	17744,63
682,49	17728,24
682,68	17573,21
682,87	17604,75
683,06	17652,67
683,25	17499,28
683,43	17584,68
683,62	17257,21
683,81	17372,71
684,00	17168,12
684,19	17076,99
684,37	16980,12
684,56	16989,33
684,75	16838,40
684,94	16974,59
685,12	17068,39
685,31	16958,61
685,50	16960,05
685,69	16956,16
685,88	16762,01
686,06	16624,39
686,25	16154,79
686,44	15513,16
686,63	14486,31
686,81	13382,86
687,00	12079,53
687,19	11128,25
687,38	10389,96
687,56	10183,73
687,75	10391,80
687,94	10808,97
688,13	11185,39
688,31	11616,49
688,50	11854,05
688,69	11888,87
688,88	11854,67
689,06	11753,09
689,25	11673,63
689,44	11656,83
689,63	11641,27
689,81	11896,86
690,00	11936,79
690,19	12125,20
690,38	12409,26
690,56	12468,65
690,75	12702,12
690,94	12851,41
691,13	13179,91
691,31	13313,03
691,50	13490,99
691,69	13583,36
691,87	13786,11
692,06	13836,69
692,25	13997,25
692,44	13904,68
692,62	13992,75
692,81	14047,43
693,00	14121,36
693,18	14089,82
693,37	14027,56
693,56	13927,01
693,75	14013,23
693,93	14066,06
694,12	13843,45
694,31	13807,81
694,49	13712,58
694,68	13896,49
694,87	13902,43
695,05	14030,02
695,24	14054,60
695,43	14114,60
695,62	14123,00
695,80	14116,03
695,99	14095,76
696,18	14260,42
696,36	14388,41
696,55	14512,93
696,74	14668,37
696,92	14745,38
697,11	14748,65
697,30	14802,51
697,48	14783,06
697,67	14695,81
697,86	14587,89
698,04	14628,23
698,23	14440,64
698,42	14500,03
698,60	14243,21
698,79	14185,05
698,98	14013,23
699,16	13984,96
699,35	13889,73
699,54	13871,51
699,72	13878,47
699,91	13995,82
700,10	13854,71
700,28	13753,95
700,47	13621,45
700,66	13600,77
700,84	13499,19
701,03	13489,36
701,21	13522,53
701,40	13691,29
701,59	13404,98
701,77	13417,47
701,96	13438,16
702,15	13388,39
702,33	13356,85
702,52	13366,27
702,71	13353,99
702,89	13545,67
703,08	13547,72
703,26	13643,36
703,45	13789,59
703,64	13685,35
703,82	13584,38
704,01	13708,49
704,20	13647,46
704,38	13779,96
704,57	13729,99
704,75	13826,04
704,94	13794,30
705,13	13742,69
705,31	13795,12
705,50	13696,61
705,68	13625,34
705,87	13699,48
706,06	13512,91
706,24	13696,00
706,43	13543,42
706,61	13689,03
706,80	13644,80
706,99	13660,57
707,17	13620,43
707,36	13669,78
707,54	13588,07
707,73	13731,22
707,92	13686,37
708,10	13610,60
708,29	13455,56
708,47	13511,68
708,66	13475,84
708,84	13440,20
709,03	13405,59
709,22	13405,18
709,40	13390,44
709,59	13494,48
709,77	13378,36
709,96	13393,31
710,14	13449,83
710,33	13409,89
710,52	13323,27
710,70	13468,06
710,89	13240,12
711,07	13261,42
711,26	13354,60
711,44	13240,12
711,63	13139,77
711,81	13287,63
712,00	13265,51
712,19	13112,73
712,37	13078,53
712,56	13107,00
712,74	12902,82
712,93	12962,41
713,11	12907,32
713,30	12925,55
713,48	12999,28
713,67	13022,01
713,85	12911,42
714,04	12956,47
714,22	12853,05
714,41	12794,48
714,59	12666,89
714,78	12637,81
714,97	12540,53
715,15	12353,14
715,34	12515,14
715,52	12525,99
715,71	12502,85
715,89	12201,18
716,08	12036,73
716,26	11742,03
716,45	11350,05
716,63	11220,41
716,82	10675,04
717,00	10460,21
717,19	10095,26
717,37	9937,97
717,56	9626,48
717,74	9450,35
717,93	9414,10
718,11	9203,16
718,30	8988,33
718,48	8859,31
718,67	8738,68
718,85	8615,19
719,04	8490,06
719,22	8418,59
719,41	8362,88
719,59	8405,89
719,78	8277,28
719,96	8336,46
720,15	8344,86
720,33	8567,47
720,52	8637,31
720,70	8942,05
720,88	9245,35
721,07	9695,08
721,25	9917,90
721,44	10181,07
721,62	10368,05
721,81	10554,62
721,99	10415,76
722,18	10512,02
722,36	10470,45
722,55	10360,47
722,73	10058,80
722,92	9977,29
723,10	9624,43
723,28	9503,39
723,47	9183,30
723,65	9108,96
723,84	9017,00
724,02	9012,29
724,21	8968,87
724,39	8963,96
724,58	8880,20
724,76	9007,99
724,94	8758,34
725,13	8850,71
725,31	8761,21
725,50	8907,44
725,68	8878,35
725,87	8918,70
726,05	8894,12
726,23	8861,15
726,42	8909,07
726,60	8922,80
726,79	8906,41
726,97	8861,77
727,16	8724,76
727,34	8627,68
727,52	8551,70
727,71	8536,75
727,89	8660,86
728,08	8848,45
728,26	8917,06
728,44	8797,25
728,63	8759,98
728,81	8597,58
729,00	8576,89
729,18	8683,39
729,36	8719,43
729,55	8730,49
729,73	8842,92
729,92	8860,33
730,10	8698,34
730,28	8926,28
730,47	8744,42
730,65	8827,97
730,84	8856,03
731,02	8833,71
731,20	8924,84
731,39	8951,26
731,57	8961,91
731,75	9283,85
731,94	9258,05
732,12	9416,77
732,31	9431,31
732,49	9665,59
732,67	9551,11
732,86	9650,03
733,04	9706,76
733,22	9822,67
733,41	9766,15
733,59	10028,08
733,78	9954,15
733,96	9977,50
734,14	10077,44
734,33	10075,19
734,51	9907,66
734,69	9862,20
734,88	9891,07
735,06	9855,44
735,24	9841,10
735,43	9760,21
735,61	9741,57
735,79	9626,48
735,98	9629,55
736,16	9705,73
736,34	9633,03
736,53	9736,45
736,71	9633,03
736,89	9683,82
737,08	9619,92
737,26	9752,63
737,44	9754,07
737,63	9770,86
737,81	9784,58
737,99	9692,63
738,18	9579,99
738,36	9589,41
738,54	9524,49
738,73	9466,94
738,91	9573,43
739,09	9658,63
739,28	9525,92
739,46	9549,47
739,64	9661,70
739,82	9629,14
740,01	9587,57
740,19	9714,54
740,37	9608,66
740,56	9505,44
740,74	9560,12
740,92	9462,43
741,11	9489,67
741,29	9568,31
741,47	9478,00
741,65	9401,41
741,84	9470,01
742,02	9507,69
742,20	9413,90
742,39	9383,59
742,57	9564,63
742,75	9591,05
742,93	9548,86
743,12	9462,84
743,30	9553,57
743,48	9642,45
743,67	9493,77
743,85	9454,45
744,03	9508,31
744,21	9311,29
744,40	9335,46
744,58	9358,19
744,76	9288,56
744,94	9300,44
745,13	9372,73
745,31	9404,07
745,49	9295,93
745,67	9311,70
745,86	9282,21
746,04	9309,45
746,22	9262,14
746,40	9231,01
746,59	9224,46
746,77	9339,56
746,95	9239,00
747,13	9218,93
747,32	9145,61
747,50	9205,82
747,68	9141,93
747,86	9033,79
748,05	9050,18
748,23	9103,22
748,41	8987,51
748,59	8982,19
748,77	8902,52
748,96	8896,58
749,14	8767,15
749,32	8772,06
749,50	8748,51
749,69	8777,39
749,87	8694,86
750,05	8667,62
750,23	8634,44
750,41	8628,09
750,60	8639,36
750,78	8555,80
750,96	8528,77
751,14	8491,70
751,32	8564,81
751,51	8563,58
751,69	8620,92
751,87	8483,10
752,05	8526,31
752,23	8553,55
752,42	8441,52
752,60	8438,04
752,78	8418,79
752,96	8468,97
753,14	8431,90
753,33	8517,09
753,51	8419,81
753,69	8596,55
753,87	8476,75
754,05	8546,99
754,23	8464,25
754,42	8501,32
754,60	8479,21
754,78	8511,15
754,96	8473,27
755,14	8508,90
755,32	8441,11
755,51	8515,66
755,69	8440,50
755,87	8536,55
756,05	8513,61
756,23	8566,65
756,41	8458,11
756,60	8479,61
756,78	8517,50
756,96	8608,64
757,14	8546,17
757,32	8517,71
757,50	8595,73
757,68	8500,30
757,87	8504,60
758,05	8495,79
758,23	8311,89
758,41	8237,14
758,59	7928,30
758,77	7444,98
758,95	6639,11
759,14	5756,43
759,32	4800,44
759,50	3808,81
759,68	2958,70
759,86	2246,21
760,04	1708,01
760,22	1341,42
760,40	1063,51
760,59	921,79
760,77	971,97
760,95	1160,38
761,13	1508,12
761,31	1857,92
761,49	2163,88
761,67	2419,88
761,85	2419,06
762,03	2382,40
762,22	2183,54
762,40	2009,06
762,58	1826,99
762,76	1735,45
762,94	1676,47
763,12	1729,10
763,30	1785,42
763,48	1826,99
763,66	2040,19
763,84	2173,92
764,02	2339,19
764,21	2580,03
764,39	2804,28
764,57	3133,60
764,75	3351,71
764,93	3651,53
765,11	3942,75
765,29	4264,28
765,47	4494,68
765,65	4798,19
765,83	5101,90
766,01	5475,04
766,19	5755,41
766,37	6015,70
766,56	6244,87
766,74	6612,28
766,92	6814,41
767,10	7081,26
767,28	7230,76
767,46	7425,53
767,64	7594,48
767,82	7728,42
768,00	7865,22
768,18	8001,62
768,36	8038,07
768,54	8109,34
768,72	8172,01
768,90	8211,74
769,08	8220,34
769,26	8218,50
769,44	8260,28
769,62	8323,15
769,80	8301,44
769,98	8407,94
770,16	8390,94
770,34	8415,92
770,52	8378,04
770,71	8366,57
770,89	8342,61
771,07	8314,55
771,25	8253,11
771,43	8273,18
771,61	8292,02
771,79	8226,08
771,97	8192,90
772,15	8234,27
772,33	8123,47
772,51	8107,29
772,69	8166,48
772,87	8156,04
773,05	8082,72
773,23	8129,41
773,41	7962,50
773,59	8031,52
773,77	7952,67
773,95	8031,93
774,13	7749,51
774,31	7854,57
774,49	7713,06
774,67	7723,50
774,85	7721,46
775,03	7685,00
775,21	7646,91
775,39	7771,84
775,57	7699,95
775,75	7674,35
775,93	7614,55
776,10	7557,82
776,28	7505,60
776,46	7507,85
776,64	7448,87
776,82	7445,60
777,00	7424,50
777,18	7345,86
777,36	7239,57
777,54	7382,52
777,72	7201,27
777,90	7239,57
778,08	7253,91
778,26	7159,90
778,44	7118,33
778,62	7088,22
778,80	7051,36
778,98	7082,29
779,16	6965,35
779,34	6988,49
779,52	6942,41
779,70	6979,07
779,88	6828,95
780,05	6874,01
780,23	6840,22
780,41	6841,44
780,59	6776,32
780,77	6824,65
780,95	6733,72
781,13	6709,56
781,31	6688,05
781,49	6646,48
781,67	6694,40
781,85	6724,10
782,03	6618,63
782,21	6597,53
782,39	6611,25
782,56	6537,53
782,74	6466,05
782,92	6445,37
783,10	6444,55
783,28	6330,68
783,46	6400,31
783,64	6361,81
783,82	6319,83
784,00	6332,73
784,18	6254,29
784,35	6341,74
784,53	6199,00
784,71	6221,93
784,89	6161,11
785,07	6234,63
785,25	6153,94
785,43	6203,91
785,61	6044,58
785,79	6142,27
785,96	6022,46
786,14	6053,59
786,32	6012,02
786,50	6061,17
786,68	5862,31
786,86	5870,50
787,04	5793,91
787,22	5816,85
787,39	5779,16
787,57	5773,02
787,75	5673,28
787,93	5663,25
788,11	5674,72
788,29	5657,10
788,47	5582,97
788,65	5526,24
788,82	5425,48
789,00	5432,85
789,18	5379,40
789,36	5378,79
789,54	5347,04
789,72	5348,07
789,89	5380,42
790,07	5342,74
790,25	5267,58
790,43	5315,71
790,61	5210,85
790,79	5207,98
790,96	5245,87
791,14	5152,28
791,32	5168,87
791,50	5155,97
791,68	5069,13
791,86	5069,75
792,03	5013,63
792,21	5106,41
792,39	4977,59
792,57	5050,29
792,75	4982,09
792,93	5040,87
793,10	4997,45
793,28	5096,17
793,46	5036,57
793,64	5063,40
793,82	4977,79
793,99	5036,57
794,17	4919,84
794,35	5029,20
794,53	4879,49
794,71	4921,27
794,88	4845,08
795,06	4873,96
795,24	4844,27
795,42	4759,07
795,60	4679,81
795,77	4707,46
795,95	4655,03
796,13	4664,25
796,31	4672,24
796,49	4714,42
796,66	4681,04
796,84	4695,79
797,02	4723,64
797,20	4760,09
797,37	4721,39
797,55	4702,14
797,73	4715,65
797,91	4708,48
798,08	4666,91
798,26	4730,19
798,44	4645,61
798,62	4568,81
798,80	4589,50
798,97	4547,11
799,15	4492,42
799,33	4429,35
799,51	4469,08
799,68	4381,42
799,86	4476,45
800,04	4403,54
800,22	4331,66
800,39	4365,25
800,57	4348,04
800,75	4350,30
800,93	4285,99
801,10	4366,47
801,28	4297,87
801,46	4251,79
801,63	4275,13
801,81	4255,68
801,99	4233,77
802,17	4193,83
802,34	4144,88
802,52	4221,27
802,70	4154,30
802,88	4182,57
803,05	4165,16
803,23	4185,43
803,41	4136,08
803,58	4124,40
803,76	4160,04
803,94	4044,33
804,12	4099,01
804,29	4130,75
804,47	4090,61
804,65	4097,78
804,82	4062,15
805,00	4100,03
805,18	4165,98
805,35	4154,92
805,53	4086,52
805,71	4111,91
805,89	4087,13
806,06	4063,78
806,24	4117,65
806,42	4114,16
806,59	4004,39
806,77	4101,67
806,95	3986,99
807,12	4032,04
807,30	3987,60
807,48	3957,49
807,65	3893,80
807,83	3989,85
808,01	3803,90
808,18	3900,36
808,36	3766,42
808,54	3800,42
808,71	3676,72
808,89	3743,69
809,07	3646,20
809,24	3694,95
809,42	3717,47
809,60	3656,85
809,77	3642,72
809,95	3675,28
810,13	3613,85
810,30	3670,98
810,48	3603,61
810,66	3585,17
810,83	3543,60
811,01	3558,96
811,18	3487,28
811,36	3463,32
811,54	3435,47
811,71	3455,54
811,89	3418,67
812,07	3358,87
812,24	3391,23
812,42	3267,53
812,59	3209,17
812,77	3122,74
812,95	3137,90
813,12	3051,68
813,30	2974,47
813,48	2967,71
813,65	2940,47
813,83	2934,33
814,00	2856,10
814,18	2790,77
814,36	2735,06
814,53	2728,51
814,71	2693,90
814,88	2647,61
815,06	2630,82
815,24	2621,81
815,41	2533,54
815,59	2534,57
815,76	2444,46
815,94	2440,56
816,12	2402,47
816,29	2447,12
816,47	2497,29
816,64	2522,89
816,82	2528,63
817,00	2515,93
817,17	2420,29
817,35	2430,73
817,52	2364,18
817,70	2427,66
817,87	2447,53
818,05	2473,13
818,23	2415,99
818,40	2443,23
818,58	2478,86
818,75	2459,41
818,93	2410,25
819,10	2514,09
819,28	2487,26
819,46	2511,01
819,63	2506,10
819,81	2649,46
819,98	2738,75
820,16	2763,32
820,33	2814,32
820,51	2816,37
820,68	2776,84
820,86	2778,07
821,03	2730,76
821,21	2637,17
821,39	2618,12
821,56	2563,85
821,74	2406,98
821,91	2253,99
822,09	2191,74
822,26	2013,97
822,44	1964,62
822,61	1991,44
822,79	2064,15
822,96	2178,42
823,14	2237,41
823,31	2302,33
823,49	2401,24
823,66	2466,98
823,84	2490,53
824,01	2505,69
824,19	2552,38
824,36	2644,54
824,54	2611,57
824,71	2603,17
824,89	2538,87
825,06	2542,96
825,24	2546,65
825,41	2568,77
825,59	2502,82
825,76	2545,63
825,94	2540,51
826,11	2555,25
826,29	2550,95
826,46	2483,16
826,64	2435,44
826,81	2419,27
826,99	2308,88
827,16	2302,53
827,34	2250,92
827,51	2263,21
827,69	2272,22
827,86	2267,10
828,04	2298,23
828,21	2267,92
828,39	2275,70
828,56	2264,44
828,74	2255,43
828,91	2265,87
829,09	2248,67
829,26	2265,05
829,43	2275,29
829,61	2306,63
829,78	2265,67
829,96	2312,98
830,13	2300,28
830,31	2330,38
830,48	2317,48
830,66	2306,22
830,83	2315,23
831,01	2290,86
831,18	2270,99
831,35	2268,53
831,53	2199,72
831,70	2255,84
831,88	2238,02
832,05	2254,20
832,23	2210,58
832,40	2272,43
832,57	2217,75
832,75	2239,25
832,92	2163,27
833,10	2273,04
833,27	2242,94
833,45	2196,86
833,62	2235,15
833,79	2267,72
833,97	2284,10
834,14	2291,27
834,32	2343,49
834,49	2320,76
834,66	2262,80
834,84	2324,85
835,01	2286,35
835,19	2274,68
835,36	2261,78
835,53	2310,11
835,71	2295,57
835,88	2268,13
836,06	2278,57
836,23	2294,13
836,40	2241,71
836,58	2287,79
836,75	2274,06
836,93	2255,43
837,10	2222,25
837,27	2254,61
837,45	2222,25
837,62	2183,54
837,79	2218,97
837,97	2224,30
838,14	2178,83
838,32	2242,94
838,49	2223,27
838,66	2201,57
838,84	2209,55
839,01	2205,05
839,18	2250,92
839,36	2233,72
839,53	2201,57
839,70	2209,55
839,88	2180,06
840,05	2181,29
840,23	2181,29
840,40	2167,37
840,57	2144,02
840,75	2161,22
840,92	2120,88
841,09	2105,31
841,27	2152,21
841,44	2140,13
841,61	2152,21
841,79	2167,57
841,96	2105,11
842,13	2163,27
842,31	2110,02
842,48	2133,78
842,65	2103,47
842,83	2083,60
843,00	2050,22
843,17	2078,07
843,35	2045,72
843,52	2061,49
843,69	2004,14
843,86	2034,86
844,04	2024,01
844,21	2003,32
844,38	2069,68
844,56	2007,21
844,73	2016,23
844,90	2050,02
845,08	2041,82
845,25	2012,33
845,42	2011,31
845,60	1997,18
845,77	2014,18
845,94	1994,11
846,11	1995,54
846,29	1973,42
846,46	1966,05
846,63	1986,73
846,81	1939,84
846,98	1953,97
847,15	1948,85
847,32	1970,56
847,50	1927,14
847,67	1958,68
847,84	1880,04
848,01	1948,64
848,19	1884,13
848,36	1880,85
848,53	1852,39
848,71	1839,69
848,88	1769,24
849,05	1811,02
849,22	1744,87
849,40	1750,40
849,57	1759,21
849,74	1753,06
849,91	1742,82
850,09	1757,77
850,26	1745,28
850,43	1752,65
850,60	1701,04
850,78	1772,31
850,95	1755,72
851,12	1756,34
851,29	1760,64
851,47	1727,67
851,64	1750,19
851,81	1767,19
851,98	1735,24
852,15	1729,71
852,33	1705,55
852,50	1727,67
852,67	1664,38
852,84	1670,12
853,02	1568,54
853,19	1546,22
853,36	1474,95
853,53	1479,66
853,70	1456,72
853,88	1474,54
854,05	1464,91
854,22	1475,97
854,39	1502,19
854,56	1540,69
854,74	1548,26
854,91	1548,26
855,08	1568,13
855,25	1532,09
855,42	1555,02
855,60	1567,52
855,77	1577,96
855,94	1560,55
856,11	1531,88
856,28	1601,10
856,46	1569,97
856,63	1595,57
856,80	1584,31
856,97	1595,78
857,14	1571,41
857,31	1587,79
857,49	1570,18
857,66	1562,80
857,83	1540,28
858,00	1560,35
858,17	1531,68
858,34	1549,49
858,52	1573,66
858,69	1524,92
858,86	1525,53
859,03	1532,29
859,20	1520,82
859,37	1504,85
859,55	1499,73
859,72	1505,26
859,89	1488,46
860,06	1473,72
860,23	1471,47
860,40	1460,61
860,57	1476,79
860,75	1398,76
860,92	1451,60
861,09	1436,85
861,26	1433,78
861,43	1429,69
861,60	1452,01
861,77	1492,56
861,95	1405,52
862,12	1452,83
862,29	1422,72
862,46	1411,87
862,63	1414,53
862,80	1404,70
862,97	1410,64
863,14	1407,77
863,31	1387,91
863,49	1379,72
863,66	1396,92
863,83	1351,45
864,00	1361,49
864,17	1363,54
864,34	1353,91
864,51	1351,45
864,68	1298,82
864,85	1294,52
865,02	1307,42
865,20	1273,84
865,37	1151,98
865,54	1149,93
865,71	1144,81
865,88	1207,48
866,05	1170,82
866,22	1166,93
866,39	1176,35
866,56	1160,38
866,73	1226,73
866,90	1171,23
867,07	1189,05
867,25	1202,77
867,42	1191,10
867,59	1229,60
867,76	1192,53
867,93	1232,67
868,10	1159,15
868,27	1203,39
868,44	1198,47
868,61	1201,95
868,78	1183,73
868,95	1240,86
869,12	1181,47
869,29	1206,66
869,46	1198,06
869,63	1182,91
869,80	1163,25
869,97	1172,26
870,14	1123,31
870,32	1176,35
870,49	1120,85
870,66	1137,24
870,83	1115,94
871,00	1160,38
871,17	1133,35
871,34	1116,35
871,51	1093,41
871,68	1117,37
871,85	1094,64
872,02	1107,13
872,19	1118,40
872,36	1119,42
872,53	1101,19
872,70	1105,90
872,87	1102,22
873,04	1075,39
873,21	1095,46
873,38	1031,36
873,55	1075,18
873,72	1027,47
873,89	1018,45
874,06	1037,91
874,23	1049,99
874,40	1043,03
874,57	1052,66
874,74	1013,54
874,91	986,30
875,08	992,24
875,25	971,76
875,42	986,71
875,59	968,28
875,76	1009,44
875,93	987,12
876,10	988,76
876,27	976,27
876,44	940,84
876,61	961,73
876,78	993,47
876,95	944,11
877,12	982,82
877,29	948,00
877,46	983,43
877,62	994,49
877,79	964,18
877,96	945,55
878,13	909,71
878,30	941,66
878,47	901,72
878,64	907,45
878,81	925,27
878,98	900,08
879,15	928,34
879,32	913,80
879,49	915,44
879,66	913,80
879,83	889,23
880,00	910,94
880,17	887,38
880,34	831,88
880,51	858,92
880,67	865,06
880,84	822,26
881,01	849,09
881,18	860,76
881,35	824,72
881,52	842,74
881,69	854,62
881,86	855,44
882,03	840,90
882,20	847,24
882,37	812,02
882,54	838,64
882,70	808,13
882,87	807,72
883,04	835,78
883,21	779,25
883,38	817,55
883,55	805,88
883,72	786,42
883,89	795,02
884,06	803,62
884,23	833,32
884,39	782,32
884,56	769,42
884,73	800,55
884,90	791,54
885,07	784,58
885,24	779,25
885,41	762,25
885,58	772,08
885,74	737,68
885,91	782,73
886,08	770,24
886,25	735,02
886,42	720,88
886,59	745,26
886,76	715,97
886,93	714,95
887,09	743,82
887,26	745,87
887,43	720,68
887,60	746,08
887,77	728,46
887,94	705,12
888,10	715,97
888,27	723,55
888,44	702,25
888,61	710,44
888,78	687,50
888,95	696,72
889,12	702,45
889,28	697,95
889,45	704,91
889,62	689,96
889,79	699,18
889,96	715,77
890,13	701,43
890,29	691,39
890,46	639,58
890,63	661,90
890,80	650,43
890,97	671,94
891,13	629,34
891,30	614,39
891,47	629,14
891,64	635,69
891,81	611,93
891,98	647,16
892,14	617,46
892,31	637,94
892,48	624,63
892,65	605,58
892,82	590,84
892,98	624,84
893,15	611,11
893,32	580,19
>>>>>End Processed Spectral Data<<<<<
