SpectraSuite Datei
++++++++++++++++++++++++++++++++++++
Datum: Tue Dec 10 14:38:23 CET 2019
Benutzer: Lichtquellen1
Dark-Spektrum vorhanden: Ja
Referenz-Spektrum vorhanden: Nein
Zahl der probierten Teilspektren: 1
Spektrometer: USB4F05832
Integrationszeit (usec): 100000 (USB4F05832)
Spektren Durchschnitt berechnet: 10 (USB4F05832)
Boxcar Glättung: 0 (USB4F05832)
Dunkelstromkorrektur: Nein (USB4F05832)
Puls/Lampe aktiviert: Nein (USB4F05832)
Correct for Detector Non-linearity: Nein (USB4F05832)
Streulichtkorrektur: Nein (USB4F05832)
Anzahl Pixel in verarbeitetem Spektrum: 3648
>>>>>Begin Processed Spectral Data<<<<<
177,54	6,55
177,75	6,55
177,97	6,55
178,19	-16,79
178,41	29,49
178,63	6,96
178,85	-10,65
179,07	-12,08
179,29	16,79
179,51	19,25
179,73	47,72
179,95	-6,14
180,17	8,40
180,39	10,65
180,61	44,44
180,83	24,58
181,05	6,55
181,27	8,60
181,49	26,01
181,71	37,89
181,92	3,28
182,14	32,97
182,36	36,66
182,58	14,13
182,80	-6,76
183,02	47,51
183,24	22,32
183,46	16,59
183,68	37,48
183,90	40,75
184,12	14,95
184,34	41,57
184,56	13,93
184,78	-6,35
185,00	18,64
185,21	7,58
185,43	0,82
185,65	26,21
185,87	34,82
186,09	29,08
186,31	6,96
186,53	22,73
186,75	44,24
186,97	25,60
187,19	22,32
187,41	-13,72
187,63	41,98
187,84	22,73
188,06	11,67
188,28	11,06
188,50	18,64
188,72	49,15
188,94	18,23
189,16	22,73
189,38	50,58
189,60	32,15
189,82	13,93
190,03	8,81
190,25	20,07
190,47	24,37
190,69	-13,93
190,91	32,15
191,13	63,49
191,35	25,80
191,57	29,70
191,79	15,56
192,01	24,17
192,22	41,37
192,44	26,42
192,66	11,47
192,88	15,56
193,10	21,30
193,32	31,13
193,54	8,40
193,76	20,27
193,98	4,51
194,19	19,87
194,41	19,05
194,63	-6,76
194,85	7,58
195,07	24,99
195,29	19,25
195,51	28,67
195,73	34,41
195,94	23,55
196,16	21,50
196,38	-4,10
196,60	-17,00
196,82	21,09
197,04	9,22
197,26	31,54
197,48	-18,02
197,69	10,44
197,91	12,49
198,13	8,81
198,35	11,88
198,57	34,41
198,79	45,46
199,01	20,89
199,22	26,42
199,44	18,64
199,66	19,66
199,88	31,33
200,10	24,17
200,32	40,96
200,54	7,58
200,75	23,55
200,97	52,84
201,19	5,12
201,41	20,48
201,63	24,99
201,85	50,18
202,06	19,05
202,28	5,53
202,50	12,49
202,72	-1,02
202,94	2,25
203,16	24,78
203,38	40,55
203,59	-7,99
203,81	33,79
204,03	9,42
204,25	44,03
204,47	3,89
204,69	35,84
204,90	18,43
205,12	15,15
205,34	4,92
205,56	24,37
205,78	22,73
206,00	25,80
206,21	52,63
206,43	31,13
206,65	-0,20
206,87	37,48
207,09	26,21
207,30	48,54
207,52	21,91
207,74	20,68
207,96	24,78
208,18	32,97
208,40	23,14
208,61	40,34
208,83	12,29
209,05	28,67
209,27	31,13
209,49	35,23
209,70	28,88
209,92	34,41
210,14	32,36
210,36	44,24
210,58	49,36
210,79	61,03
211,01	5,53
211,23	54,07
211,45	21,30
211,67	15,36
211,88	-14,54
212,10	56,11
212,32	10,24
212,54	-1,64
212,76	7,37
212,97	19,87
213,19	41,57
213,41	26,21
213,63	46,08
213,85	1,02
214,06	29,08
214,28	43,21
214,50	43,62
214,72	0,82
214,94	22,73
215,15	51,40
215,37	43,01
215,59	49,36
215,81	21,09
216,02	17,20
216,24	29,70
216,46	28,67
216,68	15,36
216,90	24,78
217,11	13,72
217,33	27,03
217,55	49,56
217,77	39,73
217,98	23,96
218,20	16,59
218,42	22,53
218,64	24,99
218,85	25,39
219,07	22,32
219,29	32,97
219,51	7,37
219,73	21,09
219,94	7,58
220,16	54,27
220,38	31,33
220,60	19,05
220,81	-7,58
221,03	7,99
221,25	30,92
221,47	47,10
221,68	28,26
221,90	28,26
222,12	27,44
222,34	24,17
222,55	16,59
222,77	1,64
222,99	27,85
223,21	-10,04
223,42	18,84
223,64	39,73
223,86	-2,87
224,08	55,91
224,29	31,54
224,51	30,11
224,73	47,72
224,94	41,98
225,16	26,01
225,38	21,30
225,60	14,95
225,81	41,98
226,03	35,43
226,25	11,88
226,47	4,71
226,68	29,08
226,90	11,67
227,12	26,42
227,33	15,97
227,55	31,13
227,77	25,39
227,99	23,55
228,20	46,28
228,42	52,02
228,64	-12,70
228,86	16,38
229,07	35,23
229,29	33,79
229,51	-12,29
229,72	-8,19
229,94	38,30
230,16	49,36
230,38	7,99
230,59	62,67
230,81	-26,83
231,03	26,01
231,24	-1,43
231,46	28,67
231,68	23,55
231,89	14,75
232,11	37,68
232,33	34,41
232,55	30,92
232,76	5,12
232,98	9,22
233,20	24,37
233,41	33,79
233,63	5,12
233,85	45,06
234,06	1,02
234,28	53,25
234,50	37,89
234,71	7,99
234,93	38,50
235,15	37,68
235,37	-5,53
235,58	12,49
235,80	15,77
236,02	44,85
236,23	7,17
236,45	23,96
236,67	19,05
236,88	20,27
237,10	43,62
237,32	13,93
237,53	46,49
237,75	-2,46
237,97	18,02
238,18	58,37
238,40	27,03
238,62	40,75
238,83	42,80
239,05	-1,84
239,27	31,74
239,48	-0,41
239,70	40,34
239,92	40,14
240,13	20,27
240,35	29,90
240,57	48,74
240,78	3,69
241,00	25,80
241,22	10,44
241,43	25,19
241,65	5,73
241,87	17,00
242,08	22,12
242,30	12,29
242,52	37,89
242,73	38,71
242,95	19,25
243,16	18,43
243,38	18,64
243,60	53,45
243,81	41,16
244,03	38,09
244,25	22,32
244,46	26,62
244,68	15,97
244,90	29,70
245,11	12,29
245,33	23,14
245,55	39,73
245,76	50,18
245,98	3,89
246,19	58,57
246,41	7,58
246,63	22,73
246,84	-1,84
247,06	55,91
247,28	29,70
247,49	23,96
247,71	21,91
247,92	9,01
248,14	11,47
248,36	66,56
248,57	52,22
248,79	35,63
249,01	36,04
249,22	18,64
249,44	1,23
249,65	28,26
249,87	25,39
250,09	21,09
250,30	13,52
250,52	16,79
250,73	27,85
250,95	15,15
251,17	51,61
251,38	41,98
251,60	47,31
251,81	62,26
252,03	33,18
252,25	20,07
252,46	41,98
252,68	47,92
252,89	19,87
253,11	27,24
253,33	52,63
253,54	28,06
253,76	37,89
253,97	32,97
254,19	42,19
254,41	25,19
254,62	31,74
254,84	26,42
255,05	41,98
255,27	34,82
255,49	46,69
255,70	25,80
255,92	29,49
256,13	11,26
256,35	22,94
256,56	19,87
256,78	26,01
257,00	8,81
257,21	38,91
257,43	81,92
257,64	46,49
257,86	30,11
258,08	26,62
258,29	12,08
258,51	23,96
258,72	45,26
258,94	13,93
259,15	13,11
259,37	26,83
259,59	25,39
259,80	23,35
260,02	12,08
260,23	13,31
260,45	1,84
260,66	-3,07
260,88	0,61
261,09	35,02
261,31	32,56
261,53	43,21
261,74	11,67
261,96	19,25
262,17	-1,43
262,39	44,44
262,60	25,19
262,82	47,92
263,03	44,24
263,25	43,62
263,46	29,90
263,68	17,00
263,90	21,71
264,11	24,58
264,33	22,32
264,54	8,81
264,76	15,15
264,97	26,21
265,19	41,57
265,40	44,24
265,62	24,99
265,83	27,85
266,05	20,48
266,26	-2,05
266,48	22,73
266,70	39,32
266,91	40,96
267,13	43,01
267,34	35,02
267,56	20,07
267,77	35,43
267,99	24,37
268,20	-13,72
268,42	16,79
268,63	53,25
268,85	20,07
269,06	47,51
269,28	42,80
269,49	23,55
269,71	41,57
269,92	11,67
270,14	44,65
270,35	2,46
270,57	11,06
270,78	48,74
271,00	27,24
271,21	15,36
271,43	8,19
271,64	0,00
271,86	76,59
272,07	40,14
272,29	49,77
272,50	15,15
272,72	42,39
272,93	35,84
273,15	55,09
273,36	15,56
273,58	13,72
273,79	26,83
274,01	45,87
274,22	0,82
274,44	24,17
274,65	6,14
274,87	6,55
275,08	32,36
275,30	20,48
275,51	32,15
275,73	38,91
275,94	14,34
276,16	3,48
276,37	32,36
276,59	46,90
276,80	57,14
277,02	56,73
277,23	18,84
277,45	16,79
277,66	27,03
277,88	9,63
278,09	76,59
278,30	14,75
278,52	41,57
278,73	71,06
278,95	37,68
279,16	4,71
279,38	38,91
279,59	39,53
279,81	35,63
280,02	54,89
280,24	0,41
280,45	34,41
280,67	18,02
280,88	30,72
281,09	4,10
281,31	27,65
281,52	17,20
281,74	36,66
281,95	54,89
282,17	22,12
282,38	61,44
282,60	26,21
282,81	24,58
283,02	5,73
283,24	17,20
283,45	20,48
283,67	27,85
283,88	9,63
284,10	33,59
284,31	41,37
284,53	26,62
284,74	19,25
284,95	29,29
285,17	2,46
285,38	18,64
285,60	6,96
285,81	38,09
286,03	27,85
286,24	13,93
286,45	55,09
286,67	54,07
286,88	59,19
287,10	-2,05
287,31	29,29
287,53	10,65
287,74	10,44
287,95	9,63
288,17	22,12
288,38	20,07
288,60	39,32
288,81	44,24
289,02	37,48
289,24	20,27
289,45	23,76
289,67	19,46
289,88	40,34
290,10	40,96
290,31	2,46
290,52	19,87
290,74	50,79
290,95	35,43
291,17	22,12
291,38	23,96
291,59	31,95
291,81	63,69
292,02	45,06
292,24	25,80
292,45	18,02
292,66	30,51
292,88	34,41
293,09	55,30
293,31	36,04
293,52	39,94
293,73	30,72
293,95	51,40
294,16	40,14
294,37	-4,92
294,59	44,44
294,80	36,86
295,02	9,42
295,23	7,37
295,44	5,32
295,66	50,79
295,87	17,82
296,09	24,37
296,30	46,49
296,51	43,83
296,73	17,00
296,94	35,23
297,15	29,70
297,37	48,74
297,58	41,16
297,79	35,23
298,01	15,36
298,22	9,42
298,44	22,12
298,65	59,60
298,86	19,87
299,08	22,73
299,29	43,01
299,50	24,58
299,72	38,71
299,93	39,32
300,14	30,11
300,36	10,44
300,57	45,67
300,79	37,68
301,00	12,49
301,21	36,86
301,43	23,35
301,64	7,58
301,85	39,12
302,07	31,74
302,28	18,23
302,49	49,15
302,71	9,63
302,92	71,68
303,13	17,00
303,35	27,85
303,56	64,72
303,77	40,75
303,99	39,32
304,20	27,44
304,41	19,46
304,63	38,30
304,84	17,00
305,05	70,45
305,27	25,60
305,48	28,06
305,69	31,95
305,91	24,17
306,12	22,32
306,33	-8,19
306,55	67,38
306,76	20,27
306,97	21,71
307,19	61,44
307,40	39,94
307,61	51,40
307,82	52,02
308,04	18,02
308,25	55,09
308,46	0,00
308,68	50,18
308,89	29,08
309,10	21,91
309,32	28,88
309,53	40,96
309,74	43,83
309,96	34,20
310,17	14,75
310,38	21,30
310,59	38,91
310,81	37,07
311,02	19,25
311,23	23,76
311,45	16,59
311,66	42,39
311,87	17,61
312,09	15,97
312,30	42,39
312,51	49,77
312,72	38,91
312,94	11,06
313,15	51,81
313,36	14,75
313,58	28,06
313,79	26,83
314,00	49,77
314,21	28,67
314,43	56,52
314,64	2,05
314,85	-2,25
315,06	37,27
315,28	35,23
315,49	54,89
315,70	22,53
315,92	40,55
316,13	30,31
316,34	8,40
316,55	24,17
316,77	32,56
316,98	71,88
317,19	48,54
317,40	39,73
317,62	-3,07
317,83	43,83
318,04	37,48
318,25	38,71
318,47	44,03
318,68	35,84
318,89	33,59
319,11	48,13
319,32	47,92
319,53	46,08
319,74	28,26
319,96	46,28
320,17	31,54
320,38	30,72
320,59	25,80
320,81	29,08
321,02	28,88
321,23	44,65
321,44	38,09
321,65	14,95
321,87	28,47
322,08	30,31
322,29	29,70
322,50	22,94
322,72	33,38
322,93	48,13
323,14	49,36
323,35	18,84
323,57	33,79
323,78	58,98
323,99	26,01
324,20	48,95
324,41	48,13
324,63	62,87
324,84	39,12
325,05	10,24
325,26	40,55
325,48	48,95
325,69	13,11
325,90	54,07
326,11	38,30
326,32	70,25
326,54	73,93
326,75	8,40
326,96	41,57
327,17	53,25
327,39	46,90
327,60	55,30
327,81	77,00
328,02	62,87
328,23	55,91
328,45	43,62
328,66	70,65
328,87	75,57
329,08	51,40
329,29	70,86
329,51	62,87
329,72	43,01
329,93	44,44
330,14	81,71
330,35	61,23
330,56	67,58
330,78	86,83
330,99	68,20
331,20	89,29
331,41	77,41
331,62	101,58
331,84	86,83
332,05	119,81
332,26	59,80
332,47	124,11
332,68	93,59
332,90	97,89
333,11	112,84
333,32	97,89
333,53	124,93
333,74	106,49
333,95	126,36
334,17	117,96
334,38	112,23
334,59	104,45
334,80	109,77
335,01	168,34
335,22	123,49
335,44	144,59
335,65	119,40
335,86	140,90
336,07	151,34
336,28	131,27
336,49	161,18
336,71	172,23
336,92	178,58
337,13	168,55
337,34	195,58
337,55	188,82
337,76	197,01
337,97	196,20
338,19	220,77
338,40	180,43
338,61	218,93
338,82	199,68
339,03	231,22
339,24	223,02
339,45	247,39
339,67	243,91
339,88	251,29
340,09	247,19
340,30	253,54
340,51	274,02
340,72	271,97
340,93	285,28
341,15	294,91
341,36	311,09
341,57	303,92
341,78	301,26
341,99	324,19
342,20	350,82
342,41	388,91
342,62	354,50
342,84	358,39
343,05	355,73
343,26	405,09
343,47	420,86
343,68	394,44
343,89	393,21
344,10	418,81
344,31	434,78
344,53	413,69
344,74	433,35
344,95	430,69
345,16	447,28
345,37	486,19
345,58	511,38
345,79	530,63
346,00	519,36
346,21	504,21
346,42	494,17
346,64	488,65
346,85	538,41
347,06	481,07
347,27	501,75
347,48	551,31
347,69	529,20
347,90	558,28
348,11	616,44
348,32	583,67
348,53	616,44
348,75	650,23
348,96	654,74
349,17	679,11
349,38	656,17
349,59	692,62
349,80	656,58
350,01	678,90
350,22	683,20
350,43	661,90
350,64	749,76
350,85	753,65
351,06	747,92
351,28	744,64
351,49	791,13
351,70	759,39
351,91	784,17
352,12	800,96
352,33	784,78
352,54	869,57
352,75	912,57
352,96	908,27
353,17	980,57
353,38	988,55
353,59	993,47
353,80	1018,25
354,01	976,88
354,22	1010,88
354,44	981,18
354,65	980,57
354,86	972,38
355,07	983,23
355,28	995,11
355,49	1061,87
355,70	1086,65
355,91	1096,28
356,12	1141,13
356,33	1158,33
356,54	1204,41
356,75	1238,00
356,96	1263,60
357,17	1244,96
357,38	1300,05
357,59	1265,03
357,80	1294,73
358,01	1337,53
358,22	1262,37
358,43	1281,41
358,64	1283,26
358,85	1253,97
359,07	1213,22
359,28	1257,66
359,49	1177,17
359,70	1180,45
359,91	1166,73
360,12	1139,29
360,33	1077,03
360,54	1093,62
360,75	1078,87
360,96	1098,12
361,17	1056,96
361,38	1162,63
361,59	1262,78
361,80	1285,92
362,01	1331,18
362,22	1411,46
362,43	1484,78
362,64	1464,71
362,85	1508,74
363,06	1445,25
363,27	1459,79
363,48	1464,30
363,69	1444,43
363,90	1453,03
364,11	1531,27
364,32	1514,06
364,53	1540,48
364,74	1558,09
364,95	1606,63
365,16	1660,08
365,37	1669,09
365,58	1713,54
365,79	1738,73
366,00	1790,13
366,21	1768,42
366,42	1828,84
366,63	1820,03
366,84	1845,83
367,05	1817,16
367,26	1872,87
367,47	1902,36
367,68	1940,45
367,89	2028,72
368,10	2021,75
368,31	1947,82
368,52	2033,63
368,73	2196,65
368,94	2188,66
369,15	2186,00
369,36	2230,65
369,57	2345,95
369,78	2345,13
369,99	2349,22
370,20	2336,94
370,40	2321,99
370,61	2328,13
370,82	2315,23
371,03	2365,61
371,24	2369,30
371,45	2482,55
371,66	2532,31
371,87	2522,89
372,08	2624,47
372,29	2586,99
372,50	2552,38
372,71	2560,58
372,92	2587,40
373,13	2531,08
373,34	2624,27
373,55	2641,88
373,76	2620,99
373,97	2575,73
374,18	2594,16
374,39	2523,92
374,60	2584,33
374,81	2503,85
375,01	2443,64
375,22	2464,53
375,43	2333,87
375,64	2376,87
375,85	2247,24
376,06	2328,54
376,27	2251,54
376,48	2289,63
376,69	2155,08
376,90	2229,62
377,11	2257,48
377,32	2216,52
377,53	2325,67
377,74	2486,23
377,94	2476,40
378,15	2620,17
378,36	2535,18
378,57	2670,35
378,78	2565,08
378,99	2703,73
379,20	2764,35
379,41	2880,88
379,62	2907,09
379,83	3091,00
380,04	3185,62
380,25	3268,97
380,45	3254,22
380,66	3284,94
380,87	3229,24
381,08	3112,71
381,29	3168,00
381,50	3018,71
381,71	2984,50
381,92	2957,06
382,13	3000,89
382,34	2865,31
382,55	3007,65
382,75	3087,52
382,96	3059,26
383,17	3085,26
383,38	3111,07
383,59	2966,89
383,80	2907,50
384,01	2817,60
384,22	2736,91
384,43	2587,81
384,63	2475,79
384,84	2342,06
385,05	2271,81
385,26	2234,54
385,47	2184,16
385,68	2186,82
385,89	2155,90
386,10	2214,47
386,30	2372,78
386,51	2337,96
386,72	2541,73
386,93	2650,48
387,14	2661,95
387,35	2880,47
387,56	2742,03
387,77	2776,84
387,97	2870,43
388,18	2932,90
388,39	2891,32
388,60	2952,76
388,81	2929,00
389,02	3004,57
389,23	3013,79
389,43	2947,03
389,64	2996,38
389,85	2916,92
390,06	2933,10
390,27	3083,22
390,48	2979,38
390,69	2997,20
390,89	3247,46
391,10	3219,00
391,31	3253,61
391,52	3441,00
391,73	3555,07
391,94	3585,58
392,14	3646,00
392,35	3795,91
392,56	3869,23
392,77	3983,71
392,98	3973,06
393,19	4051,70
393,39	4204,89
393,60	4169,25
393,81	4320,19
394,02	4024,05
394,23	3964,87
394,44	3820,08
394,64	3580,87
394,85	3434,24
395,06	3023,62
395,27	2772,74
395,48	2678,74
395,69	2483,78
395,89	2695,54
396,10	2837,26
396,31	2897,67
396,52	3172,51
396,73	3386,11
396,93	3693,51
397,14	3669,96
397,35	4104,54
397,56	4076,28
397,77	4058,25
397,97	4115,39
398,18	3994,56
398,39	3562,24
398,60	3423,79
398,81	3120,08
399,01	3160,02
399,22	3126,22
399,43	3376,28
399,64	3556,91
399,85	3814,14
400,05	4146,11
400,26	4412,96
400,47	4657,90
400,68	4899,36
400,89	4982,71
401,09	5330,86
401,30	5610,82
401,51	5515,59
401,72	5750,90
401,93	5921,91
402,13	6000,55
402,34	5957,54
402,55	6087,79
402,76	6150,25
402,96	6301,40
403,17	6115,64
403,38	6395,60
403,59	6250,61
403,80	6839,81
404,00	6606,54
404,21	6502,51
404,42	6842,26
404,63	6792,91
404,83	6790,65
405,04	6442,09
405,25	6540,19
405,46	6588,11
405,66	6430,21
405,87	6690,30
406,08	6611,87
406,29	6791,27
406,49	6480,59
406,70	6512,75
406,91	6410,35
407,12	6814,82
407,32	6459,50
407,53	6819,74
407,74	6486,53
407,95	6304,26
408,15	6430,21
408,36	6296,89
408,57	6362,63
408,78	6505,17
408,98	6446,39
409,19	6318,19
409,40	6615,96
409,61	6439,84
409,81	6549,81
410,02	6650,98
410,23	6738,64
410,44	7170,55
410,64	6934,83
410,85	6934,83
411,06	7090,27
411,26	6986,85
411,47	6851,48
411,68	6781,64
411,89	6411,58
412,09	6552,27
412,30	6580,53
412,51	6399,90
412,72	6522,17
412,92	7005,08
413,13	6922,13
413,34	7041,33
413,54	7104,61
413,75	7313,71
413,96	7218,48
414,17	7163,18
414,37	7158,47
414,58	7202,30
414,79	7318,21
414,99	7139,63
415,20	7310,84
415,41	7314,12
415,61	7371,87
415,82	7335,00
416,03	7079,01
416,24	7182,64
416,44	7325,17
416,65	7407,91
416,86	7476,72
417,06	7294,46
417,27	7212,74
417,48	7151,30
417,68	7494,13
417,89	7604,11
418,10	7433,51
418,30	7516,66
418,51	7442,32
418,72	7370,23
418,92	7658,99
419,13	7175,06
419,34	7420,61
419,55	7151,92
419,75	7367,57
419,96	7197,59
420,17	7439,25
420,37	7316,16
420,58	7042,35
420,79	7009,38
420,99	7365,93
421,20	7400,95
421,41	7298,55
421,61	7358,35
421,82	6976,20
422,03	7289,54
422,23	7255,75
422,44	7526,69
422,65	7516,86
422,85	7592,23
423,06	7605,34
423,26	7865,43
423,47	7921,13
423,68	7557,82
423,88	7716,13
424,09	7508,26
424,30	7429,62
424,50	7372,89
424,71	7544,10
424,92	7365,93
425,12	7282,58
425,33	7606,16
425,54	7676,40
425,74	7800,71
425,95	7449,69
426,15	7936,90
426,36	7367,16
426,57	7742,76
426,77	7425,12
426,98	7586,09
427,19	7519,94
427,39	7705,28
427,60	7388,25
427,81	7619,06
428,01	7634,01
428,22	7999,57
428,42	7352,00
428,63	7623,97
428,84	7530,79
429,04	7288,93
429,25	7324,36
429,45	7196,97
429,66	7565,61
429,87	7600,01
430,07	7466,28
430,28	7429,42
430,49	7317,39
430,69	7435,76
430,90	7178,13
431,10	7086,79
431,31	6887,73
431,52	6968,21
431,72	6452,13
431,93	6158,24
432,13	6172,37
432,34	6212,10
432,55	5818,69
432,75	6302,83
432,96	6569,06
433,16	6720,41
433,37	7234,86
433,58	7583,63
433,78	7655,31
433,99	7264,55
434,19	7832,66
434,40	7807,27
434,60	8149,69
434,81	8210,10
435,02	8072,27
435,22	8198,43
435,43	7890,82
435,63	7795,80
435,84	7922,77
436,05	8005,71
436,25	7531,41
436,46	8227,10
436,66	8243,07
436,87	8262,33
437,07	8121,63
437,28	8259,05
437,48	8644,07
437,69	8492,11
437,90	8706,73
438,10	8874,46
438,31	8834,73
438,51	9345,29
438,72	8911,94
438,92	8936,93
439,13	8973,79
439,34	8769,40
439,54	8682,98
439,75	8449,92
439,95	8306,15
440,16	8337,28
440,36	8329,91
440,57	8241,64
440,77	8591,23
440,98	8345,27
441,18	8358,17
441,39	8394,83
441,60	8917,88
441,80	8635,67
442,01	8385,82
442,21	8806,68
442,42	8498,25
442,62	8782,30
442,83	8890,23
443,03	9080,28
443,24	9177,56
443,44	9166,09
443,65	9368,23
443,85	9350,82
444,06	9448,71
444,26	9443,39
444,47	9351,84
444,67	9752,43
444,88	9439,70
445,09	9292,66
445,29	9581,63
445,50	9503,39
445,70	9374,37
445,91	9532,68
446,11	9352,87
446,32	9676,65
446,52	9668,05
446,73	9547,84
446,93	9544,15
447,14	9209,31
447,34	9347,13
447,55	8932,01
447,75	9205,62
447,96	9349,80
448,16	9200,50
448,37	9364,54
448,57	9335,87
448,78	9624,84
448,98	9534,73
449,19	9561,97
449,39	9756,11
449,60	9698,98
449,80	9955,79
450,01	9875,51
450,21	9856,87
450,42	10035,25
450,62	9914,22
450,83	9902,34
451,03	9847,86
451,23	9954,56
451,44	10018,66
451,64	10421,09
451,85	10155,88
452,05	10535,57
452,26	10489,49
452,46	10556,05
452,67	10490,92
452,87	10338,76
453,08	10452,42
453,28	10148,30
453,49	10569,77
453,69	10162,43
453,90	10194,79
454,10	10287,77
454,31	10034,84
454,51	9874,90
454,71	9814,28
454,92	9719,25
455,12	9677,68
455,33	10196,63
455,53	10253,97
455,74	10597,01
455,94	10739,55
456,15	10872,87
456,35	11093,44
456,55	10801,40
456,76	11156,51
456,96	11797,53
457,17	10943,32
457,37	12262,42
457,58	11614,03
457,78	12330,00
457,99	11984,30
458,19	11182,52
458,39	12100,01
458,60	12399,63
458,80	12455,75
459,01	12062,13
459,21	12024,65
459,42	12453,29
459,62	11533,34
459,82	12562,45
460,03	12033,25
460,23	12396,15
460,44	12236,61
460,64	11521,67
460,85	12741,23
461,05	11824,36
461,25	11789,34
461,46	12839,74
461,66	12498,96
461,87	12052,09
462,07	12249,31
462,27	11864,29
462,48	11783,60
462,68	12331,64
462,89	12181,32
463,09	12147,32
463,29	12516,57
463,50	12343,31
463,70	12894,83
463,91	12319,15
464,11	12169,64
464,31	12740,21
464,52	12806,97
464,72	12951,97
464,93	12691,06
465,13	13258,96
465,33	12567,97
465,54	12276,14
465,74	12051,27
465,95	12589,27
466,15	12655,22
466,35	12827,04
466,56	12545,45
466,76	12750,65
466,96	12593,78
467,17	12720,55
467,37	12750,86
467,58	12702,53
467,78	12643,54
467,98	12865,75
468,19	12265,49
468,39	12761,10
468,59	12943,57
468,80	12762,33
469,00	12526,61
469,21	12559,78
469,41	12710,92
469,61	13310,98
469,82	12668,12
470,02	13413,79
470,22	13829,52
470,43	13488,74
470,63	13063,38
470,83	14102,72
471,04	13392,69
471,24	13489,97
471,45	13139,15
471,65	13224,14
471,85	13092,05
472,06	13390,23
472,26	13524,38
472,46	13528,27
472,67	14008,52
472,87	13871,92
473,07	13992,95
473,28	14107,64
473,48	14492,66
473,68	14743,12
473,89	14642,57
474,09	14655,88
474,29	14528,09
474,50	14826,68
474,70	14555,94
474,90	14779,78
475,11	15102,34
475,31	15044,38
475,51	15161,11
475,72	15174,63
475,92	15354,65
476,12	15082,06
476,33	15620,88
476,53	15571,73
476,73	15696,45
476,93	15855,37
477,14	15442,71
477,34	15385,57
477,54	15584,63
477,75	15825,68
477,95	15562,10
478,15	15791,48
478,36	15914,77
478,56	16171,58
478,76	16517,07
478,97	16754,23
479,17	16611,48
479,37	16585,88
479,57	16812,39
479,78	16918,68
479,98	16635,04
480,18	17098,08
480,39	17245,33
480,59	17408,96
480,79	17453,40
480,99	17605,98
481,20	17685,64
481,40	17733,36
481,60	18061,24
481,81	17886,14
482,01	17963,96
482,21	18154,83
482,41	18242,08
482,62	18467,76
482,82	18753,66
483,02	18925,07
483,23	18936,34
483,43	19212,81
483,63	18889,64
483,83	19071,71
484,04	19405,73
484,24	19060,45
484,44	19403,89
484,64	19110,42
484,85	19260,94
485,05	19515,50
485,25	19459,59
485,45	19285,72
485,66	19410,03
485,86	19604,59
486,06	19506,49
486,26	19486,01
486,47	19381,98
486,67	19034,64
486,87	18721,51
487,07	18072,51
487,28	17499,69
487,48	17249,43
487,68	17704,89
487,88	17420,43
488,09	17628,30
488,29	17840,06
488,49	18231,22
488,69	18447,69
488,90	18796,05
489,10	18877,97
489,30	18998,80
489,50	19381,36
489,71	19388,12
489,91	19587,59
490,11	19425,80
490,31	19708,22
490,52	19905,64
490,72	20090,16
490,92	20583,93
491,12	20796,71
491,32	20939,05
491,53	21127,66
491,73	21063,56
491,93	21406,80
492,13	21257,71
492,33	21232,11
492,54	20922,25
492,74	21103,29
492,94	20706,19
493,14	20778,28
493,35	20450,40
493,55	20661,14
493,75	20857,13
493,95	20814,12
494,15	20927,17
494,36	21375,67
494,56	21241,12
494,76	21198,93
494,96	21214,29
495,16	21284,95
495,37	21416,63
495,57	21478,07
495,77	21708,47
495,97	21924,94
496,17	22135,06
496,37	21983,10
496,58	21933,95
496,78	21611,40
496,98	21833,80
497,18	21852,65
497,38	21910,81
497,59	22080,38
497,79	22051,71
497,99	22014,64
498,19	22122,98
498,39	22050,48
498,59	22313,23
498,80	22006,45
499,00	22064,61
499,20	21846,50
499,40	21544,22
499,60	21506,13
499,80	21540,13
500,01	21513,71
500,21	21522,31
500,41	21629,62
500,61	21802,06
500,81	21734,89
501,01	21511,04
501,22	21519,65
501,42	21279,01
501,62	20994,96
501,82	20981,85
502,02	20819,04
502,22	20504,47
502,42	20491,77
502,63	20503,44
502,83	20248,27
503,03	20281,65
503,23	20335,31
503,43	20183,55
503,63	20276,53
503,83	20584,54
504,04	20328,14
504,24	20573,89
504,44	20468,63
504,64	20554,64
504,84	20107,98
505,04	19911,17
505,24	20059,03
505,44	20037,74
505,65	19917,11
505,85	20092,21
506,05	20263,83
506,25	20275,30
506,45	20153,65
506,65	20416,00
506,85	20532,53
507,05	20792,62
507,26	20844,02
507,46	20776,44
507,66	20838,90
507,86	20659,50
508,06	20717,05
508,26	20513,68
508,46	20504,26
508,66	20268,34
508,86	20280,22
509,06	20266,08
509,27	20270,18
509,47	20183,55
509,67	20368,28
509,87	20413,33
510,07	20612,19
510,27	20823,34
510,47	20627,96
510,67	20734,66
510,87	20624,89
511,07	20509,59
511,28	20561,40
511,48	20373,81
511,68	20642,71
511,88	20707,42
512,08	20643,93
512,28	20834,40
512,48	20880,07
512,68	21035,71
512,88	20993,93
513,08	21121,73
513,28	21007,65
513,48	20787,09
513,68	20843,82
513,89	20676,09
514,09	20470,06
514,29	20788,93
514,49	20564,06
514,69	20469,24
514,89	20490,54
515,09	20408,01
515,29	20406,17
515,49	20257,69
515,69	20267,72
515,89	20506,52
516,09	20671,38
516,29	20567,55
516,49	20605,84
516,69	20844,84
516,89	20810,23
517,09	20534,37
517,29	20455,52
517,50	19941,89
517,70	19324,02
517,90	18846,84
518,10	18454,66
518,30	18694,27
518,50	18617,67
518,70	18873,88
518,90	19333,64
519,10	19341,22
519,30	19276,92
519,50	19278,14
519,70	19277,53
519,90	19384,02
520,10	19906,26
520,30	20026,47
520,50	20129,28
520,70	20584,75
520,90	20727,29
521,10	20869,21
521,30	21041,45
521,50	21290,27
521,70	21257,10
521,90	21329,80
522,10	21532,34
522,30	21375,26
522,50	21752,30
522,70	21733,66
522,90	21917,16
523,10	21795,51
523,30	21974,50
523,50	21661,78
523,70	21696,59
523,90	21498,14
524,10	21535,82
524,30	21405,78
524,50	21714,00
524,70	21958,94
524,90	22195,27
525,10	22378,97
525,30	22318,97
525,50	22688,01
525,70	22576,60
525,90	22468,06
526,10	22519,26
526,30	22590,53
526,50	22619,20
526,70	22561,24
526,90	22341,70
527,10	21897,50
527,30	21623,68
527,50	21274,71
527,70	20868,80
527,90	20567,75
528,10	20569,39
528,30	20699,64
528,50	20843,41
528,70	21121,32
528,90	21561,83
529,10	21651,33
529,30	21733,86
529,50	22146,32
529,70	22193,84
529,90	22570,87
530,10	22690,26
530,29	22559,19
530,49	22738,60
530,69	22604,25
530,89	22622,07
531,09	22350,51
531,29	22460,07
531,49	22663,03
531,69	22843,04
531,89	22881,34
532,09	22966,13
532,29	22965,31
532,49	22882,77
532,69	22930,08
532,89	22788,36
533,09	22490,79
533,29	22317,94
533,49	21865,96
533,68	21661,16
533,88	21872,72
534,08	21701,30
534,28	21660,14
534,48	21889,10
534,68	21924,94
534,88	21803,70
535,08	22032,05
535,28	21895,45
535,48	22167,42
535,68	22155,13
535,88	22173,97
536,08	22350,10
536,27	22615,31
536,47	22646,64
536,67	23020,19
536,87	22792,25
537,07	22575,17
537,27	22685,96
537,47	22416,66
537,67	22017,51
537,87	22038,40
538,07	22118,68
538,27	21805,75
538,46	22144,48
538,66	22086,93
538,86	22071,57
539,06	22284,56
539,26	22232,34
539,46	22039,42
539,66	22178,27
539,86	22068,50
540,06	21913,68
540,25	21731,82
540,45	21560,61
540,65	21591,32
540,85	21354,99
541,05	21215,11
541,25	21091,62
541,45	21044,72
541,65	20731,59
541,85	20802,86
542,04	20941,91
542,24	20957,07
542,44	21215,32
542,64	21252,59
542,84	21342,91
543,04	21258,94
543,24	21198,52
543,43	21268,36
543,63	21229,04
543,83	21037,76
544,03	20903,21
544,23	21002,74
544,43	21082,81
544,63	21118,86
544,82	21454,93
545,02	21273,68
545,22	21348,44
545,42	21006,63
545,62	21342,09
545,82	21305,84
546,02	21075,03
546,21	21240,92
546,41	21089,57
546,61	20905,46
546,81	21207,74
547,01	20859,79
547,21	21142,41
547,40	20888,46
547,60	20938,84
547,80	20721,55
548,00	20926,35
548,20	20659,91
548,40	20479,28
548,59	20632,47
548,79	20515,94
548,99	20528,22
549,19	20362,54
549,39	20463,92
549,59	20563,04
549,78	20491,77
549,98	20687,76
550,18	20593,76
550,38	20413,74
550,58	20652,33
550,77	20631,85
550,97	20485,42
551,17	20264,86
551,37	20556,90
551,57	20298,65
551,76	20144,23
551,96	20271,61
552,16	20040,40
552,36	20432,99
552,56	20285,74
552,75	20434,63
552,95	20343,09
553,15	20334,90
553,35	20221,23
553,55	19863,45
553,74	19995,96
553,94	19858,13
554,14	19762,90
554,34	19792,59
554,54	19866,53
554,73	20018,69
554,93	19927,15
555,13	20019,92
555,33	19942,71
555,53	20032,82
555,72	19929,40
555,92	19975,27
556,12	19945,58
556,32	19870,21
556,51	19814,71
556,71	19843,38
556,91	19476,59
557,11	19359,65
557,30	19403,89
557,50	19188,85
557,70	19022,15
557,90	19150,35
558,10	19110,83
558,29	18771,07
558,49	19118,61
558,69	18942,89
558,89	18773,52
559,08	18868,55
559,28	18760,42
559,48	18460,80
559,68	18440,32
559,87	18309,46
560,07	18255,59
560,27	18232,25
560,47	18214,63
560,66	18171,01
560,86	18113,26
561,06	18058,37
561,25	18295,12
561,45	18490,09
561,65	18578,56
561,85	18469,20
562,04	18452,20
562,24	18379,70
562,44	18339,15
562,64	18129,23
562,83	18086,84
563,03	17986,29
563,23	18132,92
563,42	18123,09
563,62	18194,36
563,82	18104,04
564,02	18238,19
564,21	18122,27
564,41	17954,95
564,61	17997,14
564,80	17935,29
565,00	17900,07
565,20	17802,17
565,40	17835,15
565,59	17866,27
565,79	17849,89
565,99	17846,61
566,18	17565,43
566,38	17377,01
566,58	17331,55
566,78	17146,21
566,97	17228,13
567,17	17180,61
567,37	17330,32
567,56	17306,16
567,76	17451,56
567,96	17525,70
568,15	17532,66
568,35	17472,45
568,55	17426,78
568,74	17280,97
568,94	17182,87
569,14	17022,51
569,33	16833,69
569,53	16784,74
569,73	16820,17
569,92	16675,18
570,12	16657,97
570,32	16737,43
570,52	16605,14
570,71	16532,02
570,91	16491,06
571,11	16415,29
571,30	16150,69
571,50	16244,08
571,70	16087,61
571,89	15765,47
572,09	16050,75
572,28	16010,20
572,48	16165,44
572,68	16152,94
572,87	16348,52
573,07	16456,04
573,27	16280,74
573,46	16449,49
573,66	16496,59
573,86	16403,62
574,05	16418,36
574,25	16277,87
574,45	16295,07
574,64	16217,25
574,84	16262,10
575,04	16274,39
575,23	16225,03
575,43	16216,23
575,62	16085,98
575,82	15875,44
576,02	15742,74
576,21	15832,64
576,41	15782,88
576,61	15744,17
576,80	15681,50
577,00	15673,51
577,19	15681,71
577,39	15853,12
577,59	15726,56
577,78	15789,02
577,98	15842,47
578,18	15721,03
578,37	15767,52
578,57	15793,32
578,76	15667,98
578,96	15532,61
579,16	15511,72
579,35	15604,29
579,55	15370,42
579,74	15465,85
579,94	15602,86
580,14	15733,32
580,33	15861,93
580,53	15935,65
580,72	15925,21
580,92	16064,27
581,12	15832,23
581,31	16047,68
581,51	16140,45
581,70	16053,00
581,90	16208,03
582,10	16194,72
582,29	16369,82
582,49	16296,51
582,68	16499,87
582,88	16582,81
583,07	16559,26
583,27	16543,29
583,47	16696,88
583,66	16737,64
583,86	16553,73
584,05	16577,08
584,25	16618,04
584,44	16625,82
584,64	16589,16
584,84	16571,55
585,03	16735,18
585,23	16586,70
585,42	16695,86
585,62	16511,95
585,81	16506,42
586,01	16341,36
586,20	16309,00
586,40	16273,36
586,60	16081,47
586,79	16154,17
586,99	16155,81
587,18	16298,96
587,38	16333,57
587,57	16301,63
587,77	16428,19
587,96	16276,85
588,16	16282,38
588,35	16245,31
588,55	16157,04
588,75	15967,19
588,94	15729,22
589,14	15425,92
589,33	15019,19
589,53	14839,58
589,72	14330,87
589,92	14284,38
590,11	13966,94
590,31	14037,60
590,50	14216,18
590,70	14227,24
590,89	14576,62
591,09	14642,57
591,28	14832,82
591,48	15000,35
591,67	14892,21
591,87	15074,69
592,06	15046,43
592,26	14884,43
592,45	14933,58
592,65	15024,31
592,84	14995,02
593,04	15005,47
593,23	15052,78
593,43	15148,01
593,62	15034,14
593,82	15015,91
594,01	15027,59
594,21	15115,65
594,40	15026,36
594,60	14930,31
594,79	14906,35
594,99	14649,73
595,18	14656,70
595,38	14534,02
595,57	14602,22
595,77	14761,76
595,96	14703,60
596,16	14775,07
596,35	14750,90
596,55	14703,80
596,74	14852,89
596,94	14858,22
597,13	14820,54
597,33	14879,72
597,52	14785,52
597,72	14702,98
597,91	14732,68
598,11	14778,35
598,30	14562,49
598,50	14805,18
598,69	14539,35
598,88	14601,20
599,08	14411,56
599,27	14548,36
599,47	14411,56
599,66	14536,48
599,86	14517,23
600,05	14539,14
600,25	14671,03
600,44	14437,97
600,64	14411,35
600,83	14482,01
601,02	14444,53
601,22	14417,70
601,41	14185,67
601,61	14309,57
601,80	14272,91
602,00	14288,47
602,19	14068,11
602,38	13923,73
602,58	13979,23
602,77	13893,22
602,97	14054,80
603,16	14155,36
603,36	13948,31
603,55	14201,02
603,74	13953,43
603,94	14204,30
604,13	14357,08
604,33	14243,01
604,52	14152,90
604,72	14246,49
604,91	14194,68
605,10	14293,39
605,30	14153,92
605,49	14103,54
605,69	14198,57
605,88	14035,14
606,07	14132,42
606,27	14043,74
606,46	13983,12
606,66	13933,15
606,85	13844,06
607,04	13859,63
607,24	13709,92
607,43	13888,91
607,63	13769,11
607,82	13850,41
608,01	13838,33
608,21	13665,89
608,40	13659,13
608,60	13534,82
608,79	13530,52
608,98	13319,78
609,18	13485,87
609,37	13328,80
609,57	13229,06
609,76	13244,83
609,95	13235,00
610,15	13289,06
610,34	13268,18
610,53	13077,71
610,73	12998,66
610,92	13001,73
611,11	12927,80
611,31	12988,83
611,50	13050,48
611,70	13091,03
611,89	13063,99
612,08	13065,84
612,28	12996,61
612,47	12976,34
612,66	12911,42
612,86	12891,35
613,05	12830,73
613,24	12809,84
613,44	12810,66
613,63	12829,91
613,82	12819,67
614,02	12741,23
614,21	12518,00
614,41	12629,62
614,60	12668,94
614,79	12618,97
614,99	12647,03
615,18	12880,90
615,37	12706,21
615,57	12944,80
615,76	12853,67
615,95	12768,68
616,15	12631,26
616,34	12682,05
616,53	12584,77
616,73	12644,36
616,92	12447,76
617,11	12493,84
617,30	12564,70
617,50	12518,62
617,69	12586,82
617,88	12758,85
618,08	12623,88
618,27	12905,28
618,46	12925,96
618,66	13038,19
618,85	12942,96
619,04	12993,54
619,24	13094,30
619,43	13111,30
619,62	13029,18
619,82	13024,88
620,01	13127,68
620,20	13277,39
620,39	13186,26
620,59	13291,11
620,78	13306,06
620,97	13337,40
621,17	13437,34
621,36	13557,14
621,55	13370,57
621,74	13402,73
621,94	13270,43
622,13	13332,07
622,32	13302,58
622,52	13224,14
622,71	13308,93
622,90	13256,91
623,09	13321,42
623,29	13257,12
623,48	13218,61
623,67	13243,19
623,86	13230,29
624,06	13159,22
624,25	13185,44
624,44	13164,55
624,64	13104,13
624,83	13077,10
625,02	12854,90
625,21	12984,94
625,41	13019,14
625,60	12947,05
625,79	12887,66
625,98	12780,96
626,18	12917,56
626,37	12713,38
626,56	12707,44
626,75	12952,99
626,95	12841,38
627,14	12785,06
627,33	12932,92
627,52	12757,00
627,72	12621,84
627,91	12368,91
628,10	12213,06
628,29	11927,78
628,49	11734,86
628,68	11802,24
628,87	11855,90
629,06	12020,14
629,25	12041,44
629,45	11990,45
629,64	12002,12
629,83	12097,56
630,02	11964,44
630,22	11889,89
630,41	11941,71
630,60	11941,50
630,79	11928,19
630,98	11941,71
631,18	12087,73
631,37	12003,96
631,56	12166,57
631,75	12124,79
631,94	12053,12
632,14	12052,30
632,33	11991,47
632,52	11970,58
632,71	12037,96
632,90	12203,85
633,10	12244,40
633,29	12214,90
633,48	12311,36
633,67	12226,58
633,86	12226,37
634,06	12323,04
634,25	12137,08
634,44	12240,91
634,63	12197,70
634,82	12221,66
635,02	12179,07
635,21	12312,18
635,40	12478,07
635,59	12347,61
635,78	12352,94
635,97	12373,62
636,17	12228,01
636,36	12345,36
636,55	12235,18
636,74	12330,41
636,93	12169,44
637,12	12353,14
637,32	12446,12
637,51	12343,52
637,70	12388,57
637,89	12478,48
638,08	12582,92
638,27	12465,58
638,47	12421,34
638,66	12482,57
638,85	12413,56
639,04	12488,92
639,23	12322,01
639,42	12385,50
639,62	12387,14
639,81	12249,72
640,00	12159,40
640,19	12144,86
640,38	12127,05
640,57	12159,20
640,76	12067,45
640,95	12160,43
641,15	11991,68
641,34	12009,90
641,53	11987,17
641,72	11888,05
641,91	12005,19
642,10	11973,65
642,29	11936,59
642,49	12138,72
642,68	11943,96
642,87	12002,94
643,06	12095,51
643,25	12147,94
643,44	12021,99
643,63	12012,98
643,82	11984,71
644,01	12150,80
644,21	12045,95
644,40	12017,89
644,59	11990,04
644,78	12042,67
644,97	11887,43
645,16	11859,17
645,35	11870,64
645,54	11862,04
645,73	11755,14
645,92	11842,58
646,12	11667,89
646,31	11596,42
646,50	11583,72
646,69	11587,20
646,88	11432,58
647,07	11393,05
647,26	11385,07
647,45	11305,61
647,64	11181,70
647,83	11336,94
648,02	11222,46
648,22	11124,16
648,41	11059,03
648,60	11112,48
648,79	11100,61
648,98	11133,78
649,17	11016,64
649,36	10966,46
649,55	10798,94
649,74	10691,42
649,93	10745,28
650,12	10759,82
650,31	10895,19
650,50	10880,45
650,69	11072,55
650,88	11286,97
651,08	11189,08
651,27	11270,18
651,46	11085,65
651,65	11036,50
651,84	10868,16
652,03	10864,27
652,22	10739,75
652,41	10872,87
652,60	10885,57
652,79	10940,25
652,98	10922,02
653,17	10950,49
653,36	10975,88
653,55	10979,37
653,74	10963,80
653,93	10963,39
654,12	10912,19
654,31	10921,41
654,50	10928,99
654,69	10786,86
654,88	10735,66
655,07	10709,03
655,26	10473,93
655,45	10388,12
655,64	10308,45
655,83	10153,21
656,02	9782,12
656,21	9438,06
656,40	9163,23
656,59	8995,09
656,78	8919,11
656,97	8993,45
657,17	9226,92
657,36	9436,63
657,55	9637,33
657,74	9866,91
657,93	9969,31
658,12	10075,39
658,31	10218,34
658,50	10330,77
658,69	10339,38
658,87	10470,45
659,06	10268,72
659,25	10359,65
659,44	10381,56
659,63	10362,11
659,82	10414,13
660,01	10322,17
660,20	10433,79
660,39	10484,99
660,58	10444,44
660,77	10362,52
660,96	10406,55
661,15	10329,34
661,34	10581,24
661,53	10516,32
661,72	10423,55
661,91	10588,82
662,10	10517,55
662,29	10538,85
662,48	10391,19
662,67	10500,14
662,86	10414,54
663,05	10341,01
663,24	10389,55
663,43	10264,01
663,62	10229,19
663,81	10174,10
664,00	10202,98
664,19	10136,42
664,38	10131,51
664,57	10082,15
664,76	10144,41
664,94	10159,97
665,13	10113,48
665,32	10062,28
665,51	10243,33
665,70	10109,18
665,89	10038,53
666,08	9998,80
666,27	10036,48
666,46	9943,71
666,65	9968,49
666,84	9933,26
667,03	10004,53
667,22	9859,95
667,41	9922,82
667,60	9893,12
667,78	9841,92
667,97	9921,59
668,16	9819,19
668,35	9876,12
668,54	9729,49
668,73	9855,03
668,92	9766,35
669,11	9833,53
669,30	9813,46
669,49	9711,88
669,68	9706,55
669,86	9641,63
670,05	9667,44
670,24	9601,49
670,43	9570,36
670,62	9655,35
670,81	9590,23
671,00	9513,63
671,19	9535,14
671,38	9405,30
671,57	9366,18
671,75	9319,28
671,94	9334,23
672,13	9326,65
672,32	9256,00
672,51	9235,93
672,70	9358,40
672,89	9290,41
673,08	9255,79
673,26	9365,98
673,45	9254,36
673,64	9262,55
673,83	9317,23
674,02	9228,35
674,21	9267,47
674,40	9253,34
674,59	9197,84
674,77	9241,05
674,96	9122,88
675,15	9108,55
675,34	9124,11
675,53	9042,60
675,72	9065,74
675,91	9036,66
676,09	9047,72
676,28	9031,75
676,47	8997,96
676,66	8972,56
676,85	8971,33
677,04	9014,34
677,22	8929,96
677,41	8861,36
677,60	8941,43
677,79	8804,01
677,98	8799,92
678,17	8784,56
678,36	8862,79
678,54	8759,37
678,73	8781,08
678,92	8802,99
679,11	8770,84
679,30	8724,96
679,48	8744,62
679,67	8692,19
679,86	8745,03
680,05	8609,46
680,24	8659,02
680,43	8612,32
680,61	8589,39
680,80	8549,25
680,99	8557,85
681,18	8519,96
681,37	8512,38
681,55	8546,99
681,74	8440,29
681,93	8494,77
682,12	8473,68
682,31	8460,57
682,49	8424,52
682,68	8380,90
682,87	8315,78
683,06	8312,91
683,25	8292,43
683,43	8389,50
683,62	8158,49
683,81	8314,55
684,00	8214,81
684,19	8086,81
684,37	8007,56
684,56	8126,75
684,75	8052,61
684,94	8081,28
685,12	8058,14
685,31	8086,20
685,50	8087,84
685,69	8010,63
685,88	7986,87
686,06	7877,51
686,25	7581,38
686,44	7328,86
686,63	6846,77
686,81	6244,46
687,00	5636,21
687,19	5066,67
687,38	4676,33
687,56	4606,09
687,75	4749,65
687,94	5063,40
688,13	5224,78
688,31	5409,91
688,50	5563,10
688,69	5557,37
688,88	5540,78
689,06	5462,96
689,25	5413,40
689,44	5488,97
689,63	5505,76
689,81	5524,60
690,00	5573,55
690,19	5679,84
690,38	5798,62
690,56	5806,20
690,75	5922,11
690,94	6033,93
691,13	6135,71
691,31	6307,33
691,50	6348,09
691,69	6362,83
691,87	6417,72
692,06	6493,49
692,25	6515,61
692,44	6522,99
692,62	6527,08
692,81	6568,25
693,00	6588,11
693,18	6611,46
693,37	6523,19
693,56	6549,20
693,75	6496,36
693,93	6517,05
694,12	6409,53
694,31	6408,09
694,49	6371,64
694,68	6486,74
694,87	6472,20
695,05	6554,32
695,24	6584,22
695,43	6569,68
695,62	6586,27
695,80	6570,91
695,99	6600,60
696,18	6639,72
696,36	6758,09
696,55	6840,42
696,74	6858,65
696,92	6932,99
697,11	6936,27
697,30	6944,46
697,48	6887,32
697,67	6898,38
697,86	6829,77
698,04	6820,35
698,23	6684,57
698,42	6829,36
698,60	6606,95
698,79	6672,28
698,98	6548,18
699,16	6475,06
699,35	6451,92
699,54	6466,05
699,72	6405,23
699,91	6455,20
700,10	6379,01
700,28	6346,86
700,47	6401,95
700,66	6326,38
700,84	6290,95
701,03	6304,47
701,21	6241,18
701,40	6362,83
701,59	6214,15
701,77	6251,02
701,96	6258,59
702,15	6263,10
702,33	6248,56
702,52	6280,71
702,71	6266,37
702,89	6310,61
703,08	6382,29
703,26	6326,18
703,45	6415,88
703,64	6470,76
703,82	6372,46
704,01	6452,13
704,20	6369,59
704,38	6421,41
704,57	6372,05
704,75	6368,77
704,94	6320,44
705,13	6374,30
705,31	6368,98
705,50	6407,48
705,68	6330,68
705,87	6380,24
706,06	6390,69
706,24	6416,08
706,43	6344,40
706,61	6343,58
706,80	6349,32
706,99	6461,75
707,17	6394,58
707,36	6440,86
707,54	6308,97
707,73	6483,66
707,92	6423,25
708,10	6313,68
708,29	6325,77
708,47	6326,38
708,66	6270,88
708,84	6261,05
709,03	6191,83
709,22	6243,03
709,40	6198,38
709,59	6240,57
709,77	6309,18
709,96	6261,25
710,14	6215,79
710,33	6213,13
710,52	6181,18
710,70	6228,08
710,89	6216,61
711,07	6183,43
711,26	6174,83
711,44	6213,54
711,63	6097,01
711,81	6169,30
712,00	6157,42
712,19	6124,04
712,37	6031,27
712,56	6071,20
712,74	6064,24
712,93	5994,40
713,11	6016,93
713,30	5958,36
713,48	6010,99
713,67	6020,21
713,85	5982,32
714,04	5990,31
714,22	5907,37
714,41	5869,07
714,59	5898,15
714,78	5861,29
714,97	5729,60
715,15	5722,64
715,34	5809,88
715,52	5796,16
715,71	5761,76
715,89	5638,06
716,08	5560,03
716,26	5403,36
716,45	5190,17
716,63	5135,08
716,82	4819,89
717,00	4721,39
717,19	4514,13
717,37	4455,56
717,56	4315,07
717,74	4218,20
717,93	4196,90
718,11	4117,44
718,30	4049,04
718,48	4058,25
718,67	3929,85
718,85	3854,69
719,04	3784,65
719,22	3793,66
719,41	3768,06
719,59	3714,61
719,78	3713,99
719,96	3734,47
720,15	3694,13
720,33	3810,86
720,52	3906,91
720,70	4046,58
720,88	4192,19
721,07	4389,21
721,25	4552,63
721,44	4643,77
721,62	4717,29
721,81	4795,52
721,99	4774,84
722,18	4809,25
722,36	4815,39
722,55	4802,08
722,73	4582,13
722,92	4523,96
723,10	4360,94
723,28	4296,23
723,47	4118,47
723,65	4078,53
723,84	4031,63
724,02	4054,57
724,21	4005,62
724,39	3990,47
724,58	3982,07
724,76	4029,99
724,94	3915,92
725,13	4022,42
725,31	3945,21
725,50	3991,49
725,68	3957,70
725,87	3967,94
726,05	4002,14
726,23	3978,38
726,42	4015,86
726,60	3950,74
726,79	3989,44
726,97	4044,33
727,16	3909,57
727,34	3870,25
727,52	3846,09
727,71	3841,17
727,89	3900,36
728,08	3985,96
728,26	4076,89
728,44	3981,66
728,63	3925,14
728,81	3879,88
729,00	3854,28
729,18	3905,48
729,36	3885,00
729,55	3917,97
729,73	4036,96
729,92	4006,44
730,10	3901,18
730,28	3988,83
730,47	3896,47
730,65	3941,32
730,84	3974,49
731,02	3982,48
731,20	3971,83
731,39	3986,78
731,57	4035,32
731,75	4128,30
731,94	4134,03
732,12	4220,25
732,31	4193,01
732,49	4363,61
732,67	4303,40
732,86	4403,34
733,04	4357,26
733,22	4403,13
733,41	4409,69
733,59	4500,00
733,78	4491,20
733,96	4529,90
734,14	4526,63
734,33	4605,06
734,51	4473,58
734,69	4431,60
734,88	4478,50
735,06	4466,21
735,24	4412,96
735,43	4378,35
735,61	4393,10
735,79	4305,24
735,98	4293,98
736,16	4389,82
736,34	4296,84
736,53	4364,63
736,71	4312,61
736,89	4363,61
737,08	4353,37
737,26	4392,89
737,44	4337,80
737,63	4451,87
737,81	4379,17
737,99	4384,70
738,18	4330,02
738,36	4356,44
738,54	4260,39
738,73	4262,44
738,91	4266,12
739,09	4331,04
739,28	4276,36
739,46	4311,38
739,64	4323,67
739,82	4314,87
740,01	4360,13
740,19	4366,27
740,37	4304,42
740,56	4320,60
740,74	4284,35
740,92	4265,51
741,11	4272,88
741,29	4296,84
741,47	4257,32
741,65	4204,68
741,84	4235,40
742,02	4232,54
742,20	4228,65
742,39	4208,37
742,57	4236,22
742,75	4246,87
742,93	4256,70
743,12	4229,06
743,30	4239,30
743,48	4255,27
743,67	4211,24
743,85	4295,61
744,03	4252,61
744,21	4160,24
744,40	4162,09
744,58	4220,25
744,76	4135,67
744,94	4216,36
745,13	4135,46
745,31	4205,09
745,49	4138,33
745,67	4126,04
745,86	4144,88
746,04	4132,60
746,22	4048,63
746,40	4066,04
746,59	4086,72
746,77	4101,88
746,95	4069,93
747,13	4069,11
747,32	4026,51
747,50	4056,21
747,68	4011,56
747,86	4021,60
748,05	4014,22
748,23	4049,65
748,41	4043,10
748,59	3956,47
748,77	3892,98
748,96	3950,94
749,14	3866,36
749,32	3880,90
749,50	3875,17
749,69	3902,40
749,87	3903,43
750,05	3830,73
750,23	3831,14
750,41	3818,23
750,60	3794,68
750,78	3793,66
750,96	3762,73
751,14	3784,03
751,32	3772,15
751,51	3776,86
751,69	3755,97
751,87	3711,94
752,05	3710,10
752,23	3777,48
752,42	3717,47
752,60	3729,56
752,78	3719,93
752,96	3738,77
753,14	3722,80
753,33	3732,42
753,51	3698,43
753,69	3764,17
753,87	3697,40
754,05	3811,47
754,23	3744,30
754,42	3782,19
754,60	3752,49
754,78	3744,71
754,96	3720,54
755,14	3710,71
755,32	3698,63
755,51	3760,48
755,69	3719,73
755,87	3734,88
756,05	3750,04
756,23	3781,37
756,41	3745,73
756,60	3751,67
756,78	3759,66
756,96	3727,30
757,14	3758,23
757,32	3711,33
757,50	3736,93
757,68	3736,31
757,87	3725,66
758,05	3704,98
758,23	3626,13
758,41	3582,51
758,59	3430,35
758,77	3196,67
758,95	2869,82
759,14	2447,53
759,32	2020,12
759,50	1551,34
759,68	1202,16
759,86	889,84
760,04	671,12
760,22	536,36
760,40	416,76
760,59	331,98
760,77	382,36
760,95	473,90
761,13	624,43
761,31	777,82
761,49	942,07
761,67	1036,27
761,85	1011,49
762,03	997,77
762,22	888,00
762,40	780,48
762,58	710,65
762,76	672,35
762,94	654,94
763,12	672,55
763,30	712,69
763,48	746,28
763,66	801,17
763,84	873,87
764,02	967,05
764,21	1061,67
764,39	1130,48
764,57	1335,89
764,75	1420,88
764,93	1513,86
765,11	1644,93
765,29	1778,87
765,47	1907,68
765,65	2062,71
765,83	2188,46
766,01	2314,82
766,19	2437,29
766,37	2533,34
766,56	2616,28
766,74	2838,08
766,92	2878,22
767,10	3021,57
767,28	3091,61
767,46	3147,52
767,64	3204,66
767,82	3303,78
768,00	3361,74
768,18	3350,48
768,36	3407,82
768,54	3472,74
768,72	3482,16
768,90	3490,56
769,08	3504,48
769,26	3418,67
769,44	3509,81
769,62	3524,35
769,80	3543,60
769,98	3541,76
770,16	3579,64
770,34	3596,03
770,52	3523,53
770,71	3548,11
770,89	3529,67
771,07	3496,50
771,25	3549,54
771,43	3526,19
771,61	3556,91
771,79	3460,25
771,97	3440,59
772,15	3480,93
772,33	3430,55
772,51	3485,44
772,69	3473,76
772,87	3450,21
773,05	3387,14
773,23	3458,40
773,41	3401,06
773,59	3386,52
773,77	3382,02
773,95	3397,58
774,13	3300,51
774,31	3307,67
774,49	3268,15
774,67	3317,91
774,85	3268,35
775,03	3240,30
775,21	3214,29
775,39	3267,94
775,57	3263,03
775,75	3296,00
775,93	3227,19
776,10	3162,47
776,28	3150,39
776,46	3174,56
776,64	3138,31
776,82	3145,48
777,00	3347,00
777,18	3119,06
777,36	3085,26
777,54	3080,55
777,72	3021,16
777,90	3073,59
778,08	3020,14
778,26	2975,08
778,44	2936,58
778,62	2972,83
778,80	2975,08
778,98	2986,96
779,16	2934,94
779,34	2877,19
779,52	2901,77
779,70	2898,29
779,88	2864,08
780,05	2879,03
780,23	2821,90
780,41	2841,15
780,59	2825,17
780,77	2831,93
780,95	2855,69
781,13	2811,66
781,31	2779,30
781,49	2761,89
781,67	2779,71
781,85	2803,67
782,03	2758,61
782,21	2749,40
782,39	2713,35
782,56	2700,25
782,74	2644,34
782,92	2666,05
783,10	2691,24
783,28	2647,20
783,46	2654,78
783,64	2681,82
783,82	2600,51
784,00	2620,58
784,18	2626,11
784,35	2625,70
784,53	2561,39
784,71	2584,54
784,89	2564,88
785,07	2566,72
785,25	2545,22
785,43	2550,34
785,61	2482,75
785,79	2494,43
785,96	2453,47
786,14	2494,02
786,32	2442,00
786,50	2446,09
786,68	2408,00
786,86	2387,93
787,04	2353,94
787,22	2379,74
787,39	2329,15
787,57	2354,75
787,75	2324,44
787,93	2326,08
788,11	2315,43
788,29	2269,97
788,47	2275,29
788,65	2235,56
788,82	2191,33
789,00	2204,84
789,18	2206,89
789,36	2223,89
789,54	2186,82
789,72	2157,74
789,89	2173,71
790,07	2185,80
790,25	2119,65
790,43	2157,74
790,61	2096,30
790,79	2154,87
790,96	2118,62
791,14	2142,58
791,32	2077,66
791,50	2101,01
791,68	2040,19
791,86	2043,87
792,03	2033,02
792,21	2033,02
792,39	2038,14
792,57	2046,54
792,75	2024,42
792,93	2024,62
793,10	2019,91
793,28	2071,73
793,46	2053,50
793,64	2009,06
793,82	2003,53
793,99	2066,20
794,17	1947,41
794,35	2035,48
794,53	1978,34
794,71	2000,46
794,88	1950,90
795,06	1977,52
795,24	1961,95
795,42	1934,10
795,60	1887,61
795,77	1878,40
795,95	1872,25
796,13	1872,87
796,31	1874,92
796,49	1895,40
796,66	1879,22
796,84	1843,99
797,02	1936,56
797,20	1901,95
797,37	1863,65
797,55	1852,59
797,73	1909,94
797,91	1879,22
798,08	1914,44
798,26	1855,87
798,44	1839,69
798,62	1804,87
798,80	1846,65
798,97	1829,25
799,15	1811,84
799,33	1747,74
799,51	1793,82
799,68	1765,55
799,86	1741,59
800,04	1725,21
800,22	1739,54
800,39	1744,87
800,57	1716,61
800,75	1690,80
800,93	1691,42
801,10	1671,96
801,28	1675,03
801,46	1642,27
801,63	1672,17
801,81	1681,59
801,99	1692,85
802,17	1663,36
802,34	1654,55
802,52	1617,90
802,70	1615,23
802,88	1676,88
803,05	1675,03
803,23	1664,18
803,41	1633,66
803,58	1607,45
803,76	1657,83
803,94	1574,48
804,12	1614,00
804,29	1663,77
804,47	1632,85
804,65	1617,08
804,82	1585,95
805,00	1637,76
805,18	1645,75
805,35	1648,21
805,53	1600,69
805,71	1586,36
805,89	1647,18
806,06	1607,86
806,24	1606,02
806,42	1613,18
806,59	1575,50
806,77	1587,99
806,95	1531,68
807,12	1538,84
807,30	1560,96
807,48	1532,70
807,65	1533,93
807,83	1557,69
808,01	1467,98
808,18	1481,71
808,36	1442,79
808,54	1473,31
808,71	1483,96
808,89	1466,55
809,07	1423,13
809,24	1447,30
809,42	1436,24
809,60	1444,84
809,77	1392,41
809,95	1431,53
810,13	1414,94
810,30	1454,26
810,48	1407,16
810,66	1373,37
810,83	1421,90
811,01	1372,55
811,18	1307,83
811,36	1357,19
811,54	1310,70
811,71	1318,28
811,89	1302,92
812,07	1294,52
812,24	1260,32
812,42	1255,00
812,59	1227,35
812,77	1184,95
812,95	1181,88
813,12	1115,53
813,30	1149,32
813,48	1117,78
813,65	1102,42
813,83	1119,42
814,00	1086,45
814,18	1081,33
814,36	1011,49
814,53	974,63
814,71	1003,10
814,88	981,80
815,06	985,28
815,24	977,29
815,41	976,88
815,59	955,38
815,76	905,41
815,94	927,73
816,12	903,56
816,29	926,50
816,47	959,88
816,64	959,06
816,82	950,26
817,00	940,43
817,17	918,92
817,35	883,49
817,52	851,14
817,70	906,43
817,87	910,32
818,05	912,78
818,23	907,25
818,40	897,62
818,58	916,06
818,75	916,67
818,93	916,47
819,10	936,74
819,28	928,14
819,46	923,02
819,63	956,20
819,81	1004,53
819,98	1022,96
820,16	1043,24
820,33	1056,75
820,51	1076,00
820,68	1059,82
820,86	1044,26
821,03	1026,44
821,21	966,23
821,39	978,31
821,56	940,43
821,74	898,65
821,91	830,45
822,09	799,94
822,26	734,40
822,44	726,41
822,61	736,45
822,79	778,43
822,96	785,40
823,14	858,71
823,31	856,87
823,49	914,62
823,66	938,79
823,84	924,86
824,01	937,76
824,19	976,27
824,36	1014,97
824,54	996,95
824,71	986,92
824,89	958,04
825,06	931,83
825,24	955,79
825,41	962,34
825,59	963,16
825,76	970,74
825,94	926,91
826,11	940,63
826,29	984,46
826,46	929,16
826,64	901,93
826,81	897,42
826,99	885,34
827,16	872,03
827,34	821,03
827,51	850,11
827,69	816,53
827,86	868,75
828,04	866,09
828,21	839,67
828,39	861,38
828,56	892,71
828,74	849,29
828,91	840,28
829,09	883,90
829,26	819,80
829,43	857,48
829,61	874,69
829,78	841,51
829,96	854,41
830,13	893,53
830,31	856,67
830,48	845,61
830,66	860,56
830,83	848,27
831,01	860,56
831,18	827,58
831,35	872,64
831,53	798,91
831,70	839,67
831,88	836,19
832,05	858,92
832,23	818,57
832,40	838,44
832,57	804,65
832,75	820,62
832,92	792,15
833,10	895,17
833,27	809,77
833,45	804,24
833,62	831,27
833,79	839,26
833,97	833,32
834,14	868,34
834,32	870,80
834,49	861,79
834,66	867,31
834,84	866,50
835,01	872,23
835,19	852,36
835,36	839,87
835,53	842,53
835,71	848,06
835,88	847,65
836,06	841,31
836,23	858,30
836,40	826,97
836,58	853,18
836,75	807,51
836,93	823,28
837,10	800,96
837,27	863,63
837,45	827,58
837,62	800,14
837,79	848,47
837,97	800,76
838,14	820,21
838,32	827,17
838,49	832,91
838,66	848,68
838,84	826,15
839,01	819,60
839,18	819,39
839,36	799,94
839,53	786,62
839,70	804,44
839,88	815,71
840,05	774,13
840,23	814,27
840,40	794,82
840,57	764,71
840,75	788,26
840,92	786,62
841,09	801,98
841,27	788,88
841,44	770,86
841,61	773,11
841,79	789,49
841,96	783,96
842,13	768,40
842,31	792,56
842,48	757,13
842,65	765,94
842,83	771,67
843,00	704,50
843,17	745,67
843,35	734,61
843,52	750,38
843,69	745,67
843,86	734,81
844,04	718,63
844,21	762,66
844,38	758,57
844,56	736,45
844,73	728,46
844,90	756,52
845,08	752,83
845,25	736,04
845,42	723,14
845,60	736,45
845,77	726,21
845,94	749,56
846,11	712,69
846,29	713,10
846,46	716,17
846,63	704,91
846,81	706,96
846,98	728,26
847,15	711,46
847,32	701,43
847,50	679,11
847,67	708,19
847,84	689,55
848,01	673,17
848,19	651,05
848,36	679,31
848,53	656,17
848,71	645,11
848,88	648,80
849,05	630,36
849,22	613,16
849,40	638,97
849,57	628,93
849,74	636,51
849,91	585,92
850,09	621,97
850,26	617,05
850,43	607,43
850,60	590,84
850,78	633,85
850,95	611,11
851,12	610,09
851,29	616,64
851,47	597,19
851,64	613,37
851,81	599,24
851,98	605,38
852,15	612,75
852,33	610,91
852,50	608,66
852,67	608,86
852,84	594,93
853,02	552,95
853,19	551,11
853,36	481,27
853,53	536,77
853,70	521,82
853,88	538,82
854,05	491,31
854,22	527,76
854,39	547,63
854,56	576,09
854,74	534,32
854,91	566,47
855,08	547,83
855,25	560,53
855,42	540,05
855,60	595,55
855,77	551,31
855,94	567,90
856,11	561,76
856,28	585,10
856,46	533,50
856,63	549,67
856,80	531,86
856,97	546,19
857,14	570,56
857,31	556,02
857,49	549,06
857,66	589,00
857,83	504,82
858,00	567,08
858,17	522,64
858,34	538,21
858,52	575,89
858,69	542,51
858,86	528,99
859,03	540,87
859,20	530,42
859,37	527,97
859,55	516,50
859,72	508,31
859,89	515,27
860,06	516,50
860,23	519,16
860,40	534,72
860,57	523,26
860,75	489,46
860,92	534,93
861,09	504,41
861,26	480,86
861,43	484,55
861,60	543,12
861,77	504,82
861,95	525,51
862,12	494,99
862,29	501,96
862,46	492,54
862,63	500,32
862,80	479,43
862,97	522,03
863,14	515,27
863,31	484,14
863,49	468,98
863,66	482,50
863,83	478,00
864,00	466,94
864,17	487,62
864,34	471,44
864,51	465,71
864,68	460,38
864,85	453,42
865,02	454,85
865,20	457,11
865,37	390,75
865,54	352,05
865,71	388,09
865,88	442,36
866,05	414,30
866,22	404,06
866,39	439,90
866,56	400,17
866,73	410,62
866,90	400,17
867,07	420,65
867,25	419,83
867,42	395,26
867,59	445,23
867,76	401,61
867,93	450,96
868,10	419,22
868,27	447,28
868,44	425,16
868,61	430,28
868,78	387,27
868,95	415,74
869,12	377,65
869,29	432,94
869,46	434,17
869,63	403,04
869,80	390,96
869,97	408,16
870,14	396,49
870,32	417,38
870,49	391,98
870,66	417,99
870,83	379,28
871,00	384,20
871,17	373,14
871,34	378,67
871,51	372,53
871,68	340,37
871,85	384,40
872,02	370,27
872,19	392,80
872,36	375,19
872,53	383,99
872,70	378,46
872,87	377,65
873,04	346,31
873,21	381,33
873,38	375,39
873,55	373,34
873,72	362,90
873,89	366,38
874,06	330,75
874,23	366,59
874,40	375,60
874,57	367,20
874,74	330,34
874,91	348,56
875,08	354,30
875,25	314,98
875,42	333,61
875,59	331,77
875,76	326,04
875,93	348,77
876,10	335,25
876,27	320,10
876,44	321,53
876,61	325,22
876,78	335,25
876,95	319,28
877,12	339,96
877,29	334,23
877,46	321,33
877,62	358,39
877,79	309,45
877,96	330,75
878,13	310,47
878,30	308,83
878,47	278,52
878,64	307,20
878,81	329,72
878,98	303,30
879,15	282,62
879,32	317,03
879,49	290,81
879,66	304,74
879,83	297,57
880,00	324,40
880,17	319,89
880,34	270,54
880,51	297,16
880,67	309,86
880,84	284,87
881,01	289,17
881,18	301,26
881,35	257,02
881,52	294,50
881,69	260,91
881,86	305,76
882,03	276,27
882,20	288,76
882,37	283,23
882,54	293,68
882,70	267,06
882,87	282,41
883,04	279,14
883,21	295,93
883,38	303,51
883,55	279,55
883,72	255,59
883,89	259,48
884,06	259,48
884,23	286,72
884,39	241,87
884,56	257,43
884,73	283,23
884,90	265,83
885,07	267,87
885,24	255,18
885,41	249,65
885,58	272,58
885,74	250,88
885,91	280,78
886,08	263,16
886,25	219,95
886,42	222,41
886,59	234,29
886,76	241,46
886,93	257,43
887,09	257,63
887,26	235,11
887,43	225,48
887,60	246,17
887,77	224,87
887,94	224,25
888,10	256,61
888,27	233,67
888,44	227,53
888,61	265,21
888,78	220,57
888,95	218,31
889,12	253,13
889,28	240,02
889,45	240,64
889,62	228,14
889,79	233,26
889,96	278,11
890,13	217,49
890,29	205,62
890,46	209,92
890,63	214,42
890,80	226,30
890,97	196,20
891,13	200,50
891,30	212,58
891,47	190,26
891,64	212,99
891,81	201,93
891,98	216,06
892,14	196,81
892,31	223,64
892,48	205,62
892,65	197,83
892,82	215,45
892,98	203,36
893,15	205,82
893,32	181,65
>>>>>End Processed Spectral Data<<<<<
