SpectraSuite Datei
++++++++++++++++++++++++++++++++++++
Datum: Tue Dec 10 15:01:35 CET 2019
Benutzer: Lichtquellen1
Dark-Spektrum vorhanden: Ja
Referenz-Spektrum vorhanden: Nein
Zahl der probierten Teilspektren: 1
Spektrometer: USB4F05832
Integrationszeit (usec): 100000 (USB4F05832)
Spektren Durchschnitt berechnet: 10 (USB4F05832)
Boxcar Glättung: 0 (USB4F05832)
Dunkelstromkorrektur: Nein (USB4F05832)
Puls/Lampe aktiviert: Nein (USB4F05832)
Correct for Detector Non-linearity: Nein (USB4F05832)
Streulichtkorrektur: Nein (USB4F05832)
Anzahl Pixel in verarbeitetem Spektrum: 3648
>>>>>Begin Processed Spectral Data<<<<<
177,54	13,93
177,75	13,93
177,97	13,93
178,19	0,00
178,41	19,46
178,63	20,27
178,85	-2,05
179,07	-0,20
179,29	27,65
179,51	-1,23
179,73	63,49
179,95	27,03
180,17	20,07
180,39	29,49
180,61	28,88
180,83	54,07
181,05	10,04
181,27	28,26
181,49	23,76
181,71	12,29
181,92	24,58
182,14	27,65
182,36	-11,26
182,58	40,96
182,80	1,84
183,02	56,52
183,24	26,01
183,46	-5,53
183,68	23,55
183,90	29,70
184,12	30,11
184,34	20,48
184,56	38,30
184,78	30,31
185,00	11,88
185,21	25,19
185,43	11,67
185,65	23,55
185,87	27,03
186,09	46,49
186,31	31,13
186,53	32,56
186,75	40,55
186,97	4,30
187,19	29,49
187,41	-9,83
187,63	32,15
187,84	11,06
188,06	52,63
188,28	10,85
188,50	34,20
188,72	48,54
188,94	8,60
189,16	44,85
189,38	17,20
189,60	31,74
189,82	32,15
190,03	1,23
190,25	34,20
190,47	22,73
190,69	-5,94
190,91	12,08
191,13	43,21
191,35	44,44
191,57	12,29
191,79	9,83
192,01	19,46
192,22	44,44
192,44	30,92
192,66	10,65
192,88	15,77
193,10	15,56
193,32	19,66
193,54	36,45
193,76	16,18
193,98	6,76
194,19	19,87
194,41	19,25
194,63	-3,48
194,85	20,89
195,07	51,61
195,29	27,03
195,51	26,42
195,73	40,96
195,94	28,67
196,16	24,99
196,38	13,93
196,60	8,40
196,82	22,53
197,04	6,96
197,26	26,21
197,48	-2,05
197,69	36,04
197,91	4,51
198,13	-1,43
198,35	18,64
198,57	29,08
198,79	31,95
199,01	29,90
199,22	15,15
199,44	33,59
199,66	16,59
199,88	7,78
200,10	21,30
200,32	45,87
200,54	14,54
200,75	13,93
200,97	30,11
201,19	23,96
201,41	11,26
201,63	25,39
201,85	38,09
202,06	27,44
202,28	12,49
202,50	9,63
202,72	9,83
202,94	13,72
203,16	21,50
203,38	38,91
203,59	12,70
203,81	17,41
204,03	32,77
204,25	20,27
204,47	36,25
204,69	30,31
204,90	22,12
205,12	5,32
205,34	19,46
205,56	23,55
205,78	11,67
206,00	31,74
206,21	57,34
206,43	22,94
206,65	24,58
206,87	43,83
207,09	41,37
207,30	19,25
207,52	17,61
207,74	18,23
207,96	22,32
208,18	32,15
208,40	38,91
208,61	48,95
208,83	53,66
209,05	45,67
209,27	21,30
209,49	55,70
209,70	37,68
209,92	53,25
210,14	47,92
210,36	49,15
210,58	59,39
210,79	36,86
211,01	25,80
211,23	13,93
211,45	7,17
211,67	5,32
211,88	16,38
212,10	36,25
212,32	25,19
212,54	16,79
212,76	43,62
212,97	61,03
213,19	27,24
213,41	25,19
213,63	40,75
213,85	-24,58
214,06	15,97
214,28	41,57
214,50	28,47
214,72	12,90
214,94	20,89
215,15	58,37
215,37	51,61
215,59	28,88
215,81	25,60
216,02	5,94
216,24	39,94
216,46	40,55
216,68	26,62
216,90	57,75
217,11	9,42
217,33	36,86
217,55	17,20
217,77	42,80
217,98	28,67
218,20	56,93
218,42	26,01
218,64	26,62
218,85	48,95
219,07	31,74
219,29	63,90
219,51	28,26
219,73	22,73
219,94	17,20
220,16	56,73
220,38	30,72
220,60	18,23
220,81	5,94
221,03	23,14
221,25	30,31
221,47	41,57
221,68	37,27
221,90	29,08
222,12	24,99
222,34	58,37
222,55	39,32
222,77	7,78
222,99	13,11
223,21	-3,69
223,42	17,41
223,64	-1,64
223,86	19,25
224,08	34,20
224,29	51,81
224,51	9,01
224,73	37,68
224,94	30,92
225,16	41,57
225,38	22,53
225,60	20,68
225,81	27,85
226,03	46,08
226,25	9,83
226,47	19,87
226,68	21,91
226,90	4,30
227,12	37,27
227,33	10,44
227,55	18,84
227,77	26,21
227,99	-2,46
228,20	37,07
228,42	20,89
228,64	55,30
228,86	10,44
229,07	37,07
229,29	27,03
229,51	15,36
229,72	-1,43
229,94	11,26
230,16	44,44
230,38	15,97
230,59	53,25
230,81	-27,24
231,03	37,07
231,24	14,75
231,46	31,54
231,68	-6,96
231,89	-18,02
232,11	22,73
232,33	35,02
232,55	32,77
232,76	39,73
232,98	8,81
233,20	-3,89
233,41	-1,23
233,63	38,50
233,85	26,62
234,06	9,22
234,28	8,40
234,50	22,53
234,71	-2,66
234,93	42,80
235,15	23,76
235,37	19,66
235,58	2,25
235,80	1,64
236,02	50,18
236,23	31,13
236,45	27,24
236,67	27,03
236,88	12,08
237,10	17,20
237,32	31,13
237,53	28,26
237,75	16,18
237,97	-0,00
238,18	57,14
238,40	45,26
238,62	40,75
238,83	40,14
239,05	1,43
239,27	30,51
239,48	33,59
239,70	15,97
239,92	44,85
240,13	39,12
240,35	15,97
240,57	13,93
240,78	10,44
241,00	3,89
241,22	15,97
241,43	44,65
241,65	30,51
241,87	20,68
242,08	29,49
242,30	27,44
242,52	24,78
242,73	47,31
242,95	33,38
243,16	18,64
243,38	26,01
243,60	47,31
243,81	78,64
244,03	53,66
244,25	19,66
244,46	15,36
244,68	19,25
244,90	24,99
245,11	21,71
245,33	10,04
245,55	37,89
245,76	49,56
245,98	25,19
246,19	38,91
246,41	34,41
246,63	50,99
246,84	14,34
247,06	28,06
247,28	34,82
247,49	20,27
247,71	20,89
247,92	28,26
248,14	36,66
248,36	59,80
248,57	37,48
248,79	35,84
249,01	34,20
249,22	19,05
249,44	27,24
249,65	27,65
249,87	36,86
250,09	7,58
250,30	11,06
250,52	18,43
250,73	41,37
250,95	21,09
251,17	45,26
251,38	30,72
251,60	39,12
251,81	23,96
252,03	32,97
252,25	45,06
252,46	57,75
252,68	21,50
252,89	44,03
253,11	28,88
253,33	61,85
253,54	28,06
253,76	27,24
253,97	25,19
254,19	13,72
254,41	34,61
254,62	34,82
254,84	14,95
255,05	18,02
255,27	6,14
255,49	19,05
255,70	16,18
255,92	5,73
256,13	-2,25
256,35	36,66
256,56	28,88
256,78	12,70
257,00	0,20
257,21	34,82
257,43	51,81
257,64	44,85
257,86	19,87
258,08	23,76
258,29	-1,64
258,51	25,80
258,72	26,01
258,94	15,15
259,15	25,39
259,37	5,53
259,59	37,07
259,80	16,18
260,02	36,86
260,23	-14,75
260,45	24,58
260,66	-8,40
260,88	23,96
261,09	28,06
261,31	39,53
261,53	44,24
261,74	21,50
261,96	34,61
262,17	-3,07
262,39	26,01
262,60	32,36
262,82	26,01
263,03	35,43
263,25	35,23
263,46	28,26
263,68	24,99
263,90	22,12
264,11	26,62
264,33	58,78
264,54	31,13
264,76	22,12
264,97	46,28
265,19	8,81
265,40	23,55
265,62	27,44
265,83	11,67
266,05	24,37
266,26	46,90
266,48	16,59
266,70	37,27
266,91	42,80
267,13	34,61
267,34	13,93
267,56	1,43
267,77	44,44
267,99	2,46
268,20	19,66
268,42	35,63
268,63	37,89
268,85	17,82
269,06	62,46
269,28	8,81
269,49	22,73
269,71	23,14
269,92	17,82
270,14	16,59
270,35	2,87
270,57	14,75
270,78	39,32
271,00	39,32
271,21	22,32
271,43	10,85
271,64	-26,21
271,86	38,30
272,07	20,48
272,29	41,98
272,50	25,80
272,72	-1,23
272,93	20,07
273,15	24,17
273,36	3,28
273,58	-5,32
273,79	29,70
274,01	29,49
274,22	10,24
274,44	26,21
274,65	16,79
274,87	17,20
275,08	2,46
275,30	51,61
275,51	54,27
275,73	16,59
275,94	28,67
276,16	22,53
276,37	25,19
276,59	58,57
276,80	41,78
277,02	41,78
277,23	-4,30
277,45	36,45
277,66	17,00
277,88	1,02
278,09	70,65
278,30	13,93
278,52	23,35
278,73	48,54
278,95	23,35
279,16	-2,05
279,38	12,90
279,59	38,50
279,81	18,02
280,02	45,06
280,24	19,46
280,45	15,97
280,67	48,13
280,88	45,87
281,09	21,71
281,31	17,20
281,52	10,24
281,74	32,77
281,95	46,28
282,17	36,66
282,38	34,00
282,60	24,37
282,81	26,21
283,02	10,85
283,24	24,58
283,45	42,19
283,67	10,44
283,88	15,77
284,10	31,74
284,31	52,02
284,53	2,46
284,74	5,94
284,95	14,34
285,17	-4,71
285,38	3,28
285,60	20,07
285,81	30,31
286,03	20,68
286,24	27,44
286,45	43,42
286,67	28,88
286,88	33,18
287,10	-1,02
287,31	12,90
287,53	29,70
287,74	35,84
287,95	4,71
288,17	32,97
288,38	56,11
288,60	47,10
288,81	47,92
289,02	23,96
289,24	-7,17
289,45	27,44
289,67	2,25
289,88	23,35
290,10	39,53
290,31	-0,61
290,52	-9,01
290,74	31,33
290,95	-4,92
291,17	63,28
291,38	32,77
291,59	15,77
291,81	32,97
292,02	29,08
292,24	50,18
292,45	20,27
292,66	25,60
292,88	21,91
293,09	51,81
293,31	56,93
293,52	43,01
293,73	24,58
293,95	46,28
294,16	14,54
294,37	12,08
294,59	23,55
294,80	5,53
295,02	43,01
295,23	6,96
295,44	10,65
295,66	42,19
295,87	4,71
296,09	32,97
296,30	28,67
296,51	35,02
296,73	-8,81
296,94	41,16
297,15	16,59
297,37	46,49
297,58	24,58
297,79	65,54
298,01	20,48
298,22	-9,63
298,44	26,83
298,65	49,36
298,86	-10,65
299,08	19,25
299,29	21,50
299,50	7,58
299,72	34,41
299,93	47,51
300,14	27,85
300,36	-8,60
300,57	49,77
300,79	29,08
301,00	24,78
301,21	35,43
301,43	13,52
301,64	7,99
301,85	37,68
302,07	34,82
302,28	10,44
302,49	55,70
302,71	-15,36
302,92	58,16
303,13	37,27
303,35	44,85
303,56	23,55
303,77	37,07
303,99	29,49
304,20	17,61
304,41	15,77
304,63	31,95
304,84	28,47
305,05	58,98
305,27	22,73
305,48	23,35
305,69	26,83
305,91	-2,66
306,12	3,07
306,33	0,82
306,55	56,93
306,76	15,36
306,97	21,91
307,19	5,73
307,40	35,23
307,61	36,66
307,82	44,65
308,04	3,48
308,25	43,21
308,46	-19,05
308,68	62,87
308,89	35,63
309,10	43,83
309,32	-0,82
309,53	44,24
309,74	20,07
309,96	20,27
310,17	39,94
310,38	36,86
310,59	12,08
310,81	22,53
311,02	48,95
311,23	34,41
311,45	31,33
311,66	25,60
311,87	8,81
312,09	40,75
312,30	13,72
312,51	29,49
312,72	18,23
312,94	18,23
313,15	18,02
313,36	12,49
313,58	5,73
313,79	25,39
314,00	65,94
314,21	27,65
314,43	44,85
314,64	37,89
314,85	20,89
315,06	-11,88
315,28	23,55
315,49	55,50
315,70	39,12
315,92	50,38
316,13	25,60
316,34	13,11
316,55	23,14
316,77	34,20
316,98	59,39
317,19	22,73
317,40	25,60
317,62	-1,02
317,83	43,62
318,04	10,85
318,25	38,71
318,47	14,75
318,68	25,60
318,89	39,94
319,11	26,21
319,32	40,34
319,53	63,28
319,74	10,65
319,96	5,12
320,17	47,72
320,38	9,83
320,59	9,63
320,81	17,00
321,02	21,09
321,23	23,55
321,44	62,26
321,65	10,85
321,87	12,29
322,08	26,01
322,29	24,78
322,50	7,37
322,72	35,63
322,93	38,71
323,14	3,07
323,35	6,96
323,57	53,25
323,78	32,36
323,99	26,62
324,20	28,67
324,41	-13,52
324,63	55,50
324,84	30,11
325,05	17,00
325,26	36,25
325,48	37,07
325,69	5,32
325,90	19,05
326,11	10,65
326,32	40,34
326,54	26,62
326,75	34,20
326,96	26,83
327,17	29,08
327,39	37,07
327,60	28,26
327,81	43,83
328,02	14,54
328,23	14,34
328,45	27,03
328,66	45,46
328,87	42,80
329,08	29,29
329,29	44,85
329,51	-0,41
329,72	-7,37
329,93	3,28
330,14	26,01
330,35	15,77
330,56	32,77
330,78	41,98
330,99	30,11
331,20	40,14
331,41	19,05
331,62	66,76
331,84	13,93
332,05	45,46
332,26	-0,20
332,47	36,86
332,68	12,49
332,90	2,25
333,11	30,51
333,32	16,79
333,53	50,58
333,74	-4,30
333,95	45,46
334,17	26,83
334,38	37,48
334,59	-1,02
334,80	9,01
335,01	42,60
335,22	-7,99
335,44	28,88
335,65	8,19
335,86	28,88
336,07	-3,48
336,28	30,92
336,49	11,88
336,71	32,15
336,92	43,42
337,13	12,08
337,34	31,33
337,55	20,68
337,76	12,70
337,97	14,54
338,19	31,54
338,40	-21,71
338,61	35,23
338,82	43,21
339,03	46,49
339,24	30,51
339,45	50,58
339,67	27,44
339,88	30,51
340,09	46,49
340,30	35,63
340,51	33,18
340,72	24,17
340,93	14,75
341,15	15,77
341,36	34,82
341,57	23,35
341,78	4,30
341,99	27,03
342,20	24,99
342,41	50,18
342,62	54,89
342,84	37,48
343,05	7,99
343,26	4,30
343,47	45,67
343,68	24,99
343,89	26,21
344,10	33,59
344,31	23,76
344,53	-7,37
344,74	-3,07
344,95	27,44
345,16	22,32
345,37	11,88
345,58	42,80
345,79	29,29
346,00	2,46
346,21	31,13
346,42	24,99
346,64	26,83
346,85	40,96
347,06	24,17
347,27	11,67
347,48	20,89
347,69	20,89
347,90	29,90
348,11	10,85
348,32	12,29
348,53	42,80
348,75	30,92
348,96	53,04
349,17	2,05
349,38	14,54
349,59	48,13
349,80	28,26
350,01	47,72
350,22	14,54
350,43	12,49
350,64	17,41
350,85	32,36
351,06	19,25
351,28	9,42
351,49	19,05
351,70	32,15
351,91	19,05
352,12	17,82
352,33	-15,56
352,54	10,24
352,75	58,78
352,96	-34,41
353,17	18,84
353,38	32,56
353,59	33,38
353,80	46,08
354,01	26,83
354,22	26,01
354,44	9,01
354,65	37,07
354,86	5,12
355,07	11,88
355,28	10,24
355,49	18,64
355,70	38,09
355,91	35,23
356,12	23,96
356,33	0,20
356,54	39,12
356,75	46,08
356,96	20,07
357,17	18,43
357,38	43,42
357,59	28,47
357,80	53,25
358,01	37,48
358,22	-8,40
358,43	25,39
358,64	34,00
358,85	10,44
359,07	37,07
359,28	51,81
359,49	25,80
359,70	36,04
359,91	19,25
360,12	23,35
360,33	28,47
360,54	6,76
360,75	37,68
360,96	42,60
361,17	11,47
361,38	19,46
361,59	46,90
361,80	-2,46
362,01	25,39
362,22	14,34
362,43	35,84
362,64	31,33
362,85	39,32
363,06	17,00
363,27	35,63
363,48	26,83
363,69	16,18
363,90	-12,08
364,11	27,03
364,32	23,55
364,53	19,05
364,74	23,55
364,95	21,30
365,16	48,13
365,37	16,59
365,58	17,41
365,79	25,60
366,00	49,36
366,21	8,81
366,42	25,39
366,63	26,21
366,84	35,02
367,05	23,35
367,26	15,15
367,47	3,89
367,68	36,86
367,89	34,20
368,10	37,27
368,31	34,61
368,52	37,07
368,73	22,12
368,94	25,60
369,15	41,16
369,36	23,35
369,57	7,78
369,78	23,55
369,99	-0,20
370,20	24,78
370,40	3,28
370,61	48,74
370,82	28,47
371,03	23,96
371,24	10,44
371,45	49,36
371,66	30,11
371,87	63,69
372,08	34,20
372,29	7,99
372,50	7,99
372,71	39,94
372,92	37,68
373,13	22,94
373,34	15,15
373,55	27,24
373,76	39,32
373,97	16,79
374,18	24,17
374,39	33,38
374,60	49,56
374,81	-5,73
375,01	30,72
375,22	29,08
375,43	24,78
375,64	25,60
375,85	30,92
376,06	51,61
376,27	21,50
376,48	34,41
376,69	33,79
376,90	11,88
377,11	27,44
377,32	26,62
377,53	22,53
377,74	48,95
377,94	23,55
378,15	60,01
378,36	50,79
378,57	34,61
378,78	31,95
378,99	45,87
379,20	21,09
379,41	38,50
379,62	-1,02
379,83	27,44
380,04	29,49
380,25	47,92
380,45	39,94
380,66	38,71
380,87	20,07
381,08	13,31
381,29	62,67
381,50	35,02
381,71	36,86
381,92	24,37
382,13	42,60
382,34	28,26
382,55	21,50
382,75	47,51
382,96	21,91
383,17	38,50
383,38	35,02
383,59	59,39
383,80	12,90
384,01	37,89
384,22	32,77
384,43	26,83
384,63	62,05
384,84	25,60
385,05	33,38
385,26	6,96
385,47	35,02
385,68	20,07
385,89	58,16
386,10	25,39
386,30	66,56
386,51	38,91
386,72	34,00
386,93	31,33
387,14	14,13
387,35	63,28
387,56	27,85
387,77	29,49
387,97	22,53
388,18	39,73
388,39	41,37
388,60	50,58
388,81	15,97
389,02	44,44
389,23	23,55
389,43	48,13
389,64	50,38
389,85	58,57
390,06	42,19
390,27	35,43
390,48	11,67
390,69	11,67
390,89	22,73
391,10	88,27
391,31	35,63
391,52	26,21
391,73	26,42
391,94	28,06
392,14	49,36
392,35	35,84
392,56	32,36
392,77	-0,61
392,98	23,96
393,19	53,25
393,39	45,67
393,60	43,21
393,81	44,65
394,02	46,08
394,23	33,79
394,44	76,39
394,64	23,76
394,85	50,58
395,06	22,12
395,27	6,76
395,48	56,73
395,69	41,16
395,89	2,25
396,10	39,12
396,31	13,52
396,52	27,85
396,73	40,14
396,93	35,43
397,14	37,48
397,35	45,67
397,56	15,36
397,77	38,71
397,97	22,12
398,18	52,22
398,39	45,87
398,60	31,74
398,81	21,91
399,01	32,77
399,22	61,64
399,43	69,22
399,64	57,55
399,85	61,64
400,05	54,48
400,26	51,81
400,47	51,40
400,68	60,42
400,89	42,80
401,09	73,93
401,30	59,60
401,51	66,76
401,72	66,97
401,93	79,05
402,13	46,49
402,34	57,34
402,55	85,40
402,76	66,15
402,96	89,50
403,17	63,69
403,38	58,16
403,59	56,93
403,80	71,88
404,00	92,77
404,21	67,79
404,42	64,92
404,63	77,82
404,83	89,91
405,04	80,49
405,25	81,92
405,46	116,53
405,66	62,87
405,87	64,92
406,08	66,97
406,29	89,91
406,49	73,11
406,70	87,04
406,91	95,23
407,12	83,76
407,32	65,74
407,53	86,42
407,74	64,31
407,95	106,49
408,15	100,96
408,36	52,22
408,57	61,44
408,78	101,99
408,98	88,06
409,19	142,33
409,40	87,24
409,61	79,05
409,81	95,64
410,02	79,87
410,23	72,70
410,44	95,44
410,64	105,06
410,85	108,34
411,06	95,64
411,26	106,08
411,47	131,89
411,68	119,40
411,89	73,93
412,09	101,17
412,30	118,78
412,51	129,23
412,72	131,07
412,92	102,60
413,13	78,64
413,34	98,30
413,54	92,77
413,75	121,24
413,96	120,22
414,17	104,24
414,37	100,76
414,58	107,52
414,79	116,32
414,99	129,43
415,20	110,39
415,41	134,96
415,61	122,26
415,82	114,28
416,03	125,95
416,24	96,46
416,44	143,36
416,65	133,94
416,86	100,35
417,06	116,53
417,27	114,89
417,48	121,85
417,68	139,67
417,89	129,84
418,10	124,31
418,30	139,06
418,51	100,15
418,72	113,46
418,92	89,29
419,13	106,49
419,34	112,64
419,55	115,30
419,75	111,41
419,96	118,99
420,17	109,57
420,37	143,97
420,58	128,61
420,79	90,73
420,99	88,68
421,20	128,82
421,41	119,81
421,61	103,22
421,82	96,87
422,03	124,11
422,23	132,30
422,44	138,03
422,65	118,78
422,85	138,03
423,06	103,01
423,26	162,40
423,47	145,41
423,68	157,08
423,88	107,72
424,09	163,02
424,30	137,62
424,50	134,96
424,71	127,59
424,92	140,70
425,12	105,68
425,33	111,20
425,54	139,06
425,74	141,51
425,95	135,78
426,15	158,10
426,36	134,35
426,57	164,45
426,77	150,53
426,98	145,61
427,19	155,85
427,39	123,90
427,60	115,51
427,81	139,47
428,01	147,25
428,22	136,39
428,42	122,26
428,63	141,72
428,84	99,94
429,04	118,99
429,25	108,13
429,45	104,04
429,66	118,17
429,87	131,89
430,07	149,91
430,28	121,03
430,49	132,30
430,69	149,30
430,90	134,96
431,10	137,62
431,31	105,88
431,52	85,61
431,72	94,41
431,93	93,39
432,13	135,78
432,34	108,75
432,55	108,54
432,75	123,49
432,96	140,29
433,16	147,04
433,37	124,93
433,58	117,35
433,78	89,29
433,99	133,73
434,19	123,90
434,40	150,32
434,60	130,05
434,81	139,06
435,02	159,74
435,22	167,32
435,43	126,56
435,63	151,14
435,84	151,34
436,05	125,54
436,25	122,67
436,46	120,42
436,66	117,96
436,87	129,23
437,07	154,21
437,28	148,68
437,48	142,33
437,69	163,22
437,90	148,07
438,10	138,03
438,31	141,31
438,51	177,76
438,72	146,22
438,92	171,41
439,13	159,13
439,34	156,46
439,54	173,67
439,75	141,51
439,95	194,76
440,16	160,15
440,36	130,66
440,57	150,53
440,77	171,01
440,98	142,74
441,18	150,12
441,39	145,82
441,60	139,47
441,80	171,82
442,01	149,09
442,21	155,24
442,42	145,00
442,62	158,10
442,83	118,78
443,03	139,26
443,24	184,11
443,44	143,97
443,65	170,39
443,85	163,84
444,06	180,84
444,26	170,60
444,47	166,91
444,67	175,51
444,88	169,57
445,09	157,28
445,29	177,97
445,50	146,84
445,70	182,47
445,91	146,63
446,11	143,36
446,32	163,84
446,52	147,66
446,73	193,94
446,93	164,04
447,14	122,06
447,34	165,89
447,55	154,42
447,75	174,49
447,96	179,40
448,16	167,11
448,37	183,91
448,57	184,52
448,78	151,34
448,98	176,74
449,19	173,05
449,39	172,44
449,60	169,16
449,80	183,09
450,01	179,40
450,21	176,74
450,42	187,39
450,62	205,00
450,83	181,04
451,03	166,91
451,23	179,81
451,44	163,22
451,64	182,27
451,85	195,58
452,05	180,43
452,26	174,28
452,46	159,13
452,67	178,58
452,87	167,93
453,08	176,94
453,28	167,32
453,49	197,42
453,69	193,33
453,90	169,78
454,10	184,93
454,31	193,53
454,51	157,69
454,71	173,26
454,92	187,59
455,12	173,46
455,33	203,57
455,53	189,03
455,74	140,90
455,94	194,97
456,15	203,57
456,35	195,17
456,55	167,52
456,76	193,33
456,96	232,65
457,17	217,29
457,37	191,28
457,58	205,82
457,78	172,64
457,99	207,05
458,19	198,45
458,39	194,97
458,60	210,33
458,80	188,00
459,01	198,65
459,21	208,07
459,42	201,52
459,62	172,23
459,82	208,48
460,03	219,34
460,23	211,56
460,44	185,75
460,64	219,75
460,85	221,39
461,05	200,70
461,25	182,68
461,46	195,17
461,66	192,30
461,87	209,30
462,07	210,74
462,27	219,95
462,48	215,65
462,68	184,32
462,89	194,56
463,09	221,18
463,29	232,44
463,50	224,05
463,70	233,88
463,91	208,48
464,11	210,12
464,31	201,11
464,52	194,35
464,72	242,27
464,93	216,68
465,13	269,92
465,33	226,30
465,54	195,58
465,74	211,15
465,95	243,91
466,15	212,99
466,35	216,47
466,56	217,49
466,76	228,96
466,96	212,58
467,17	220,57
467,37	219,13
467,58	227,73
467,78	247,60
467,98	215,04
468,19	185,34
468,39	214,22
468,59	229,78
468,80	220,16
469,00	197,01
469,21	225,28
469,41	222,00
469,61	268,90
469,82	226,10
470,02	208,28
470,22	248,21
470,43	220,16
470,63	225,07
470,83	231,01
471,04	230,40
471,24	219,34
471,45	203,36
471,65	234,49
471,85	209,92
472,06	232,24
472,26	206,23
472,46	204,39
472,67	256,61
472,87	243,09
473,07	250,06
473,28	212,78
473,48	255,59
473,68	284,05
473,89	253,74
474,09	305,97
474,29	231,83
474,50	273,61
474,70	245,14
474,90	280,78
475,11	256,61
475,31	228,35
475,51	258,45
475,72	254,36
475,92	245,76
476,12	261,94
476,33	284,67
476,53	271,15
476,73	268,28
476,93	271,56
477,14	239,20
477,34	280,16
477,54	234,29
477,75	312,72
477,95	278,32
478,15	274,22
478,36	275,86
478,56	275,66
478,76	274,02
478,97	277,70
479,17	290,61
479,37	277,50
479,57	274,22
479,78	308,01
479,98	288,76
480,18	305,97
480,39	279,34
480,59	295,93
480,79	292,25
480,99	242,48
481,20	296,14
481,40	312,32
481,60	316,82
481,81	285,49
482,01	274,84
482,21	294,91
482,41	308,83
482,62	302,89
482,82	280,98
483,02	325,22
483,23	325,83
483,43	303,30
483,63	302,89
483,83	336,48
484,04	327,47
484,24	321,53
484,44	344,06
484,64	286,92
484,85	343,65
485,05	329,11
485,25	336,69
485,45	347,95
485,66	322,56
485,86	302,08
486,06	310,47
486,26	321,33
486,47	318,46
486,67	318,25
486,87	306,17
487,07	308,42
487,28	304,74
487,48	316,21
487,68	306,79
487,88	302,48
488,09	282,82
488,29	321,74
488,49	312,93
488,69	311,09
488,90	306,38
489,10	328,90
489,30	317,03
489,50	321,94
489,71	305,76
489,91	316,21
490,11	292,25
490,31	345,49
490,52	337,10
490,72	346,11
490,92	365,77
491,12	339,35
491,32	336,28
491,53	353,89
491,73	356,14
491,93	355,73
492,13	370,27
492,33	369,25
492,54	362,70
492,74	364,74
492,94	370,48
493,14	353,27
493,35	325,83
493,55	342,22
493,75	334,02
493,95	322,76
494,15	341,19
494,36	365,77
494,56	344,67
494,76	362,08
494,96	354,71
495,16	371,50
495,37	377,65
495,57	337,30
495,77	374,37
495,97	369,86
496,17	358,80
496,37	336,48
496,58	367,20
496,78	342,83
496,98	346,93
497,18	393,01
497,38	381,54
497,59	341,40
497,79	368,22
497,99	358,19
498,19	327,67
498,39	397,51
498,59	379,49
498,80	382,56
499,00	378,87
499,20	345,70
499,40	363,51
499,60	365,77
499,80	367,00
500,01	357,17
500,21	328,29
500,41	357,37
500,61	388,70
500,81	350,41
501,01	357,98
501,22	371,50
501,42	344,26
501,62	350,20
501,82	364,13
502,02	347,13
502,22	310,88
502,42	369,45
502,63	367,61
502,83	361,67
503,03	346,31
503,23	331,36
503,43	352,87
503,63	342,63
503,83	371,71
504,04	336,28
504,24	357,78
504,44	329,93
504,64	380,31
504,84	324,81
505,04	340,78
505,24	325,63
505,44	317,44
505,65	333,82
505,85	360,44
506,05	388,29
506,25	361,67
506,45	306,58
506,65	365,77
506,85	284,26
507,05	336,69
507,26	347,34
507,46	340,99
507,66	307,20
507,86	322,56
508,06	359,01
508,26	306,58
508,46	321,53
508,66	342,63
508,86	335,66
509,06	348,15
509,27	327,88
509,47	343,44
509,67	347,34
509,87	326,24
510,07	334,84
510,27	386,25
510,47	329,52
510,67	335,66
510,87	364,54
511,07	364,33
511,28	335,46
511,48	336,69
511,68	354,71
511,88	344,47
512,08	343,44
512,28	325,22
512,48	341,60
512,68	350,00
512,88	364,33
513,08	360,44
513,28	360,24
513,48	353,89
513,68	355,73
513,89	331,57
514,09	350,82
514,29	344,88
514,49	316,82
514,69	348,15
514,89	350,00
515,09	352,05
515,29	345,90
515,49	352,25
515,69	348,77
515,89	345,90
516,09	378,46
516,29	371,50
516,49	324,60
516,69	362,90
516,89	349,79
517,09	346,31
517,29	343,85
517,50	336,28
517,70	326,24
517,90	299,21
518,10	300,23
518,30	293,68
518,50	322,76
518,70	328,08
518,90	333,41
519,10	330,34
519,30	316,62
519,50	345,49
519,70	322,35
519,90	317,44
520,10	350,61
520,30	369,04
520,50	349,79
520,70	346,11
520,90	351,23
521,10	341,81
521,30	344,47
521,50	327,67
521,70	338,94
521,90	313,34
522,10	337,51
522,30	342,83
522,50	364,95
522,70	370,68
522,90	334,84
523,10	357,17
523,30	386,45
523,50	365,36
523,70	355,12
523,90	411,85
524,10	356,96
524,30	331,36
524,50	350,61
524,70	349,79
524,90	388,09
525,10	371,71
525,30	361,06
525,50	398,94
525,70	370,48
525,90	354,91
526,10	365,77
526,30	387,27
526,50	369,04
526,70	379,49
526,90	342,63
527,10	370,48
527,30	333,82
527,50	354,91
527,70	354,91
527,90	321,74
528,10	330,34
528,30	347,95
528,50	347,75
528,70	343,44
528,90	319,48
529,10	347,54
529,30	349,59
529,50	358,19
529,70	356,14
529,90	393,41
530,10	374,78
530,29	359,83
530,49	362,29
530,69	382,56
530,89	360,44
531,09	347,54
531,29	362,49
531,49	378,46
531,69	369,25
531,89	347,95
532,09	371,50
532,29	391,37
532,49	358,19
532,69	367,00
532,89	360,85
533,09	388,09
533,29	367,82
533,49	355,53
533,68	349,38
533,88	353,07
534,08	397,10
534,28	342,83
534,48	391,16
534,68	323,37
534,88	360,24
535,08	332,79
535,28	322,56
535,48	376,42
535,68	350,61
535,88	372,12
536,08	364,54
536,27	376,62
536,47	347,75
536,67	386,45
536,87	379,28
537,07	365,56
537,27	406,93
537,47	385,84
537,67	374,37
537,87	360,65
538,07	360,44
538,27	367,61
538,46	353,89
538,66	362,08
538,86	354,50
539,06	334,43
539,26	357,37
539,46	386,45
539,66	365,77
539,86	369,86
540,06	345,29
540,25	372,12
540,45	362,70
540,65	359,83
540,85	362,70
541,05	343,85
541,25	384,20
541,45	335,25
541,65	349,38
541,85	339,55
542,04	354,50
542,24	315,80
542,44	359,62
542,64	369,25
542,84	323,99
543,04	345,70
543,24	352,87
543,43	367,61
543,63	345,90
543,83	360,65
544,03	329,52
544,23	354,50
544,43	347,34
544,63	344,26
544,82	312,93
545,02	348,56
545,22	337,30
545,42	342,01
545,62	371,91
545,82	374,57
546,02	335,05
546,21	350,82
546,41	352,05
546,61	328,29
546,81	344,67
547,01	350,41
547,21	348,97
547,40	323,17
547,60	367,82
547,80	323,78
548,00	326,86
548,20	330,34
548,40	333,20
548,59	355,94
548,79	358,60
548,99	346,93
549,19	345,90
549,39	329,52
549,59	322,15
549,78	336,69
549,98	367,00
550,18	295,11
550,38	331,16
550,58	363,31
550,77	287,74
550,97	333,61
551,17	323,58
551,37	332,59
551,57	345,08
551,76	309,24
551,96	354,91
552,16	308,63
552,36	337,91
552,56	344,06
552,75	340,37
552,95	319,48
553,15	319,89
553,35	331,16
553,55	338,73
553,74	305,76
553,94	315,18
554,14	323,99
554,34	326,04
554,54	339,96
554,73	346,31
554,93	322,15
555,13	330,34
555,33	355,53
555,53	292,65
555,72	333,61
555,92	287,74
556,12	303,51
556,32	342,42
556,51	329,11
556,71	333,82
556,91	314,77
557,11	293,06
557,30	307,60
557,50	317,23
557,70	317,03
557,90	298,39
558,10	338,53
558,29	323,99
558,49	303,30
558,69	290,61
558,89	278,52
559,08	299,62
559,28	314,77
559,48	306,79
559,68	327,27
559,87	334,23
560,07	296,75
560,27	326,24
560,47	309,65
560,66	309,86
560,86	303,10
561,06	290,40
561,25	300,03
561,45	313,95
561,65	319,89
561,85	301,67
562,04	281,19
562,24	295,11
562,44	311,09
562,64	322,35
562,83	322,35
563,03	292,45
563,23	297,77
563,42	277,70
563,62	295,73
563,82	284,46
564,02	320,92
564,21	307,81
564,41	324,40
564,61	296,34
564,80	309,65
565,00	328,08
565,20	291,02
565,40	319,07
565,59	325,42
565,79	315,39
565,99	311,70
566,18	279,14
566,38	286,10
566,58	265,42
566,78	294,09
566,97	297,98
567,17	293,27
567,37	284,87
567,56	323,17
567,76	306,99
567,96	315,59
568,15	297,16
568,35	304,94
568,55	312,72
568,74	294,91
568,94	289,58
569,14	304,53
569,33	271,56
569,53	325,42
569,73	287,33
569,92	285,90
570,12	310,88
570,32	308,22
570,52	309,65
570,71	301,26
570,91	300,64
571,11	286,51
571,30	301,67
571,50	285,28
571,70	317,44
571,89	271,36
572,09	307,60
572,28	327,47
572,48	309,45
572,68	319,69
572,87	299,21
573,07	297,37
573,27	284,05
573,46	277,29
573,66	319,69
573,86	338,12
574,05	357,98
574,25	314,57
574,45	293,06
574,64	307,40
574,84	358,60
575,04	328,90
575,23	315,80
575,43	332,18
575,62	331,57
575,82	305,35
576,02	328,49
576,21	303,92
576,41	287,13
576,61	327,06
576,80	308,83
577,00	321,74
577,19	335,87
577,39	334,43
577,59	327,06
577,78	325,83
577,98	352,87
578,18	339,96
578,37	346,72
578,57	356,96
578,76	327,88
578,96	310,88
579,16	302,69
579,35	303,30
579,55	344,47
579,74	355,94
579,94	337,71
580,14	373,14
580,33	357,58
580,53	368,63
580,72	356,14
580,92	345,08
581,12	347,34
581,31	376,01
581,51	395,46
581,70	360,44
581,90	387,48
582,10	380,72
582,29	355,32
582,49	395,46
582,68	385,22
582,88	387,89
583,07	384,20
583,27	413,89
583,47	408,98
583,66	392,19
583,86	394,85
584,05	408,98
584,25	420,24
584,44	408,36
584,64	443,18
584,84	418,60
585,03	431,71
585,23	412,26
585,42	439,70
585,62	468,58
585,81	411,03
586,01	442,57
586,20	457,11
586,40	438,67
586,60	421,06
586,79	448,10
586,99	454,65
587,18	473,29
587,38	482,71
587,57	439,90
587,77	452,40
587,96	479,22
588,16	486,80
588,35	478,41
588,55	513,43
588,75	487,62
588,94	520,59
589,14	513,43
589,33	536,36
589,53	466,53
589,72	475,54
589,92	530,42
590,11	476,97
590,31	493,36
590,50	512,61
590,70	522,85
590,89	549,27
591,09	535,34
591,28	548,24
591,48	544,35
591,67	554,59
591,87	573,64
592,06	579,58
592,26	567,49
592,45	612,34
592,65	607,02
592,84	635,08
593,04	628,52
593,23	640,20
593,43	632,21
593,62	644,50
593,82	650,43
594,01	677,67
594,21	685,46
594,40	639,99
594,60	701,43
594,79	701,63
594,99	708,39
595,18	683,82
595,38	740,34
595,57	709,83
595,77	756,52
595,96	771,06
596,16	772,29
596,35	769,63
596,55	810,59
596,74	810,18
596,94	804,03
597,13	820,62
597,33	805,06
597,52	850,52
597,72	852,16
597,91	875,30
598,11	901,52
598,30	846,43
598,50	892,50
598,69	904,59
598,88	931,42
599,08	946,98
599,27	979,54
599,47	982,41
599,66	1008,42
599,86	995,93
600,05	1038,73
600,25	1042,21
600,44	1046,51
600,64	1049,38
600,83	1117,78
601,02	1140,31
601,22	1135,80
601,41	1118,40
601,61	1163,86
601,80	1200,52
602,00	1225,71
602,19	1225,91
602,38	1241,89
602,58	1246,39
602,77	1282,85
602,97	1297,39
603,16	1347,97
603,36	1308,86
603,55	1316,43
603,74	1386,47
603,94	1441,97
604,13	1466,14
604,33	1458,97
604,52	1475,15
604,72	1512,83
604,91	1523,28
605,10	1576,94
605,30	1564,24
605,49	1609,29
605,69	1664,18
605,88	1682,00
606,07	1759,41
606,27	1745,69
606,46	1796,07
606,66	1788,49
606,85	1794,84
607,04	1860,37
607,24	1897,44
607,43	1914,03
607,63	1960,32
607,82	2012,95
608,01	2063,12
608,21	2075,41
608,40	2127,63
608,60	2124,77
608,79	2186,21
608,98	2233,51
609,18	2308,06
609,37	2361,92
609,57	2361,92
609,76	2446,50
609,95	2429,51
610,15	2567,95
610,34	2588,63
610,53	2663,79
610,73	2684,89
610,92	2761,28
611,11	2799,57
611,31	2870,64
611,50	2944,98
611,70	3038,78
611,89	3101,85
612,08	3173,33
612,28	3258,52
612,47	3308,08
612,66	3407,62
612,86	3467,83
613,05	3557,73
613,24	3639,65
613,44	3739,80
613,63	3818,03
613,82	4009,31
614,02	4035,73
614,21	4158,20
614,41	4271,45
614,60	4429,14
614,79	4471,53
614,99	4578,44
615,18	4756,41
615,37	4830,54
615,57	5051,31
615,76	5117,05
615,95	5232,15
616,15	5408,89
616,34	5594,64
616,53	5725,30
616,73	5912,28
616,92	6152,10
617,11	6268,22
617,30	6453,15
617,50	6611,46
617,69	6858,24
617,88	7070,20
618,08	7205,16
618,27	7505,60
618,46	7712,24
618,66	7982,98
618,85	8114,87
619,04	8473,06
619,24	8697,72
619,43	8943,89
619,62	9169,98
619,82	9421,48
620,01	9606,82
620,20	9914,22
620,39	10116,97
620,59	10427,64
620,78	10656,61
620,97	10999,23
621,17	11253,18
621,36	11693,70
621,55	11997,00
621,74	12351,71
621,94	12537,05
622,13	13066,25
622,32	13343,34
622,52	13681,66
622,71	14028,38
622,90	14439,82
623,09	14806,61
623,29	15149,23
623,48	15356,49
623,67	15692,56
623,86	16001,80
624,06	16367,37
624,25	16630,33
624,44	16889,80
624,64	17272,16
624,83	17507,88
625,02	17649,39
625,21	18144,39
625,41	18516,30
625,60	18825,13
625,79	19152,60
625,98	19589,64
626,18	20215,29
626,37	20284,72
626,56	20706,81
626,75	21475,41
626,95	21493,02
627,14	21883,57
627,33	22573,74
627,52	22818,67
627,72	23076,10
627,91	23349,92
628,10	23833,85
628,29	24104,59
628,49	24337,65
628,68	24566,20
628,87	24922,76
629,06	25548,21
629,25	25625,41
629,45	25997,32
629,64	26580,38
629,83	27056,94
630,02	27424,76
630,22	27852,38
630,41	28641,05
630,60	28951,32
630,79	29462,49
630,98	30079,13
631,18	30536,44
631,37	31008,09
631,56	31846,53
631,75	32386,58
631,94	32585,03
632,14	33069,98
632,33	33151,70
632,52	33658,16
632,71	33629,29
632,90	34162,37
633,10	34219,92
633,29	34258,83
633,48	34452,57
633,67	34457,07
633,86	34648,56
634,06	35107,30
634,25	34807,07
634,44	35167,92
634,63	34880,59
634,82	35180,42
635,02	34828,99
635,21	35058,97
635,40	34972,34
635,59	34491,28
635,78	34380,48
635,97	33938,94
636,17	33076,74
636,36	32883,82
636,55	32160,07
636,74	31605,89
636,93	30355,81
637,12	29703,12
637,32	29092,42
637,51	27636,72
637,70	26875,29
637,89	25974,80
638,08	25229,54
638,27	24145,35
638,47	23073,44
638,66	22253,64
638,85	21292,94
639,04	20529,04
639,23	19507,93
639,42	18868,55
639,62	18110,80
639,81	17169,97
640,00	16421,43
640,19	15614,94
640,38	14891,19
640,57	14197,34
640,76	13427,10
640,95	12734,06
641,15	11978,98
641,34	11359,88
641,53	10727,67
641,72	10002,69
641,91	9605,79
642,10	9046,70
642,29	8510,54
642,49	8042,78
642,68	7567,45
642,87	7214,38
643,06	6914,35
643,25	6483,87
643,44	6148,62
643,63	5784,49
643,82	5546,10
644,01	5356,05
644,21	5031,45
644,40	4777,71
644,59	4544,85
644,78	4328,38
644,97	4035,11
645,16	4008,08
645,35	3755,97
645,54	3553,02
645,73	3448,16
645,92	3259,14
646,12	3105,54
646,31	2936,58
646,50	2842,17
646,69	2669,73
646,88	2493,81
647,07	2436,67
647,26	2285,33
647,45	2206,89
647,64	2095,07
647,83	2014,38
648,02	1899,08
648,22	1830,27
648,41	1722,34
648,60	1722,14
648,79	1624,65
648,98	1575,09
649,17	1496,25
649,36	1388,73
649,55	1361,28
649,74	1318,28
649,93	1262,98
650,12	1215,26
650,31	1202,16
650,50	1110,00
650,69	1079,89
650,88	1064,33
651,08	1014,77
651,27	954,97
651,46	897,01
651,65	872,03
651,84	845,81
652,03	786,01
652,22	734,40
652,41	739,52
652,60	736,04
652,79	693,85
652,98	645,72
653,17	601,28
653,36	608,25
653,55	553,57
653,74	559,51
653,93	527,97
654,12	542,10
654,31	485,37
654,50	475,13
654,69	452,19
654,88	439,70
655,07	451,17
655,26	424,34
655,45	381,54
655,64	379,49
655,83	355,73
656,02	342,22
656,21	349,38
656,40	345,08
656,59	309,04
656,78	279,75
656,97	302,08
657,17	243,30
657,36	252,51
657,55	290,81
657,74	257,22
657,93	249,85
658,12	239,82
658,31	226,71
658,50	222,61
658,69	208,48
658,87	212,17
659,06	191,89
659,25	205,82
659,44	205,41
659,63	208,07
659,82	211,96
660,01	169,78
660,20	224,66
660,39	177,15
660,58	157,49
660,77	148,48
660,96	125,54
661,15	138,65
661,34	160,36
661,53	152,37
661,72	149,50
661,91	131,68
662,10	106,08
662,29	124,93
662,48	140,29
662,67	138,85
662,86	133,94
663,05	105,68
663,24	117,35
663,43	115,92
663,62	111,82
663,81	110,59
664,00	85,81
664,19	114,28
664,38	80,28
664,57	100,96
664,76	116,73
664,94	117,96
665,13	60,62
665,32	84,99
665,51	89,29
665,70	100,15
665,89	89,91
666,08	89,09
666,27	78,03
666,46	66,56
666,65	71,47
666,84	85,40
667,03	85,40
667,22	37,89
667,41	59,39
667,60	49,15
667,78	69,43
667,97	65,13
668,16	64,72
668,35	65,53
668,54	32,36
668,73	79,67
668,92	64,72
669,11	30,51
669,30	33,18
669,49	59,19
669,68	44,03
669,86	55,91
670,05	39,32
670,24	63,90
670,43	38,50
670,62	101,37
670,81	26,21
671,00	53,04
671,19	55,50
671,38	56,11
671,57	36,86
671,75	54,89
671,94	25,80
672,13	24,58
672,32	15,15
672,51	30,11
672,70	41,78
672,89	47,72
673,08	27,65
673,26	23,76
673,45	46,49
673,64	4,10
673,83	53,66
674,02	26,01
674,21	20,27
674,40	19,66
674,59	1,64
674,77	38,09
674,96	19,25
675,15	39,53
675,34	35,23
675,53	46,28
675,72	43,62
675,91	0,41
676,09	-7,37
676,28	23,76
676,47	12,29
676,66	55,09
676,85	36,45
677,04	-1,84
677,22	40,55
677,41	-49,97
677,60	-9,42
677,79	-12,90
677,98	-19,46
678,17	7,37
678,36	11,47
678,54	2,46
678,73	10,04
678,92	33,79
679,11	3,28
679,30	0,41
679,48	15,77
679,67	19,87
679,86	-2,46
680,05	-5,73
680,24	-36,66
680,43	-0,82
680,61	-30,72
680,80	2,66
680,99	-27,85
681,18	4,71
681,37	4,51
681,55	-5,53
681,74	23,55
681,93	-2,05
682,12	0,41
682,31	17,00
682,49	32,15
682,68	-46,69
682,87	-3,28
683,06	-7,99
683,25	1,64
683,43	-15,77
683,62	-9,83
683,81	0,61
684,00	4,51
684,19	-25,80
684,37	-28,26
684,56	-1,43
684,75	-3,07
684,94	33,79
685,12	-7,58
685,31	-58,16
685,50	12,29
685,69	14,54
685,88	1,02
686,06	-7,17
686,25	-0,61
686,44	-41,98
686,63	1,02
686,81	1,02
687,00	-3,69
687,19	4,30
687,38	-37,48
687,56	-4,71
687,75	-9,22
687,94	30,92
688,13	-13,31
688,31	-9,42
688,50	-4,30
688,69	30,72
688,88	4,51
689,06	-16,38
689,25	9,63
689,44	14,95
689,63	6,14
689,81	6,14
690,00	15,77
690,19	-19,25
690,38	-7,99
690,56	-19,25
690,75	-12,49
690,94	9,42
691,13	-16,59
691,31	-8,81
691,50	-22,53
691,69	9,01
691,87	-33,18
692,06	-17,61
692,25	0,00
692,44	-33,18
692,62	-24,99
692,81	-14,54
693,00	-26,01
693,18	-15,15
693,37	-41,78
693,56	-46,49
693,75	-28,06
693,93	-3,28
694,12	-10,04
694,31	0,61
694,49	-22,94
694,68	-37,89
694,87	-24,17
695,05	-7,99
695,24	-9,42
695,43	-18,23
695,62	-19,25
695,80	-20,48
695,99	-38,30
696,18	-13,93
696,36	-23,55
696,55	2,25
696,74	-47,31
696,92	-50,18
697,11	-4,30
697,30	-27,44
697,48	-38,71
697,67	-10,85
697,86	-42,19
698,04	-32,15
698,23	-49,36
698,42	-10,24
698,60	-22,94
698,79	-51,61
698,98	-23,35
699,16	-25,39
699,35	-64,72
699,54	-37,89
699,72	-57,75
699,91	-24,99
700,10	-33,59
700,28	-37,07
700,47	-21,91
700,66	-48,13
700,84	-40,96
701,03	-57,55
701,21	-4,10
701,40	-14,54
701,59	-37,27
701,77	-2,66
701,96	-21,30
702,15	-18,64
702,33	-50,18
702,52	-17,82
702,71	-1,43
702,89	-15,77
703,08	-38,91
703,26	-34,82
703,45	-12,70
703,64	-11,88
703,82	-19,87
704,01	-29,90
704,20	-27,65
704,38	-24,17
704,57	-27,24
704,75	-23,14
704,94	-33,59
705,13	-40,55
705,31	-28,06
705,50	-22,94
705,68	-50,99
705,87	-54,07
706,06	-40,34
706,24	-55,30
706,43	-34,00
706,61	-40,96
706,80	-47,31
706,99	-19,46
707,17	-59,80
707,36	-19,87
707,54	-62,05
707,73	-13,72
707,92	-22,73
708,10	-33,18
708,29	-49,97
708,47	-49,36
708,66	-62,67
708,84	-2,46
709,03	-77,82
709,22	-46,90
709,40	-15,36
709,59	-17,00
709,77	-45,67
709,96	-75,16
710,14	-50,79
710,33	-32,15
710,52	-37,68
710,70	-28,88
710,89	-30,72
711,07	-44,03
711,26	-52,02
711,44	-34,00
711,63	-55,70
711,81	-39,94
712,00	-48,54
712,19	-35,63
712,37	-57,55
712,56	-49,77
712,74	-49,15
712,93	-60,82
713,11	-44,65
713,30	-47,92
713,48	-63,49
713,67	-87,24
713,85	-36,25
714,04	-34,41
714,22	-58,37
714,41	-83,35
714,59	-38,71
714,78	-22,12
714,97	-43,83
715,15	-64,10
715,34	-71,68
715,52	-26,21
715,71	-47,72
715,89	-29,49
716,08	-70,45
716,26	-84,99
716,45	-34,41
716,63	-49,97
716,82	-45,46
717,00	-62,87
717,19	-48,33
717,37	-14,95
717,56	-11,06
717,74	-35,02
717,93	-35,23
718,11	-62,26
718,30	-63,08
718,48	-9,83
718,67	-34,00
718,85	-15,77
719,04	-40,55
719,22	-4,30
719,41	-60,01
719,59	-23,55
719,78	-13,52
719,96	-22,32
720,15	-23,55
720,33	-73,32
720,52	-57,75
720,70	-47,92
720,88	-52,02
721,07	-22,73
721,25	-21,09
721,44	-45,67
721,62	-32,97
721,81	-33,79
721,99	-36,45
722,18	-36,86
722,36	-55,50
722,55	-28,26
722,73	-67,38
722,92	-17,00
723,10	-61,44
723,28	-23,55
723,47	-27,24
723,65	-38,30
723,84	-41,57
724,02	-35,43
724,21	-58,37
724,39	-22,53
724,58	-25,39
724,76	-39,32
724,94	-66,15
725,13	-10,24
725,31	-7,99
725,50	-38,09
725,68	-51,81
725,87	-39,12
726,05	-5,94
726,23	-30,51
726,42	-16,59
726,60	-53,66
726,79	-56,11
726,97	-12,49
727,16	-8,19
727,34	-46,49
727,52	-34,82
727,71	19,66
727,89	-19,87
728,08	-22,32
728,26	-11,26
728,44	-47,31
728,63	-64,10
728,81	-46,49
729,00	-50,58
729,18	-8,40
729,36	-84,79
729,55	-47,10
729,73	-2,25
729,92	-28,88
730,10	-45,87
730,28	-10,85
730,47	-44,85
730,65	-30,92
730,84	-52,43
731,02	-49,15
731,20	-2,46
731,39	-45,26
731,57	-35,43
731,75	-12,70
731,94	-12,29
732,12	-46,49
732,31	-44,65
732,49	-31,33
732,67	-58,98
732,86	-57,75
733,04	-33,18
733,22	-50,18
733,41	-68,40
733,59	-52,63
733,78	-57,14
733,96	-20,27
734,14	-54,89
734,33	-36,86
734,51	-42,39
734,69	-69,63
734,88	-44,44
735,06	-41,37
735,24	-10,85
735,43	-44,44
735,61	-48,33
735,79	-52,22
735,98	-86,42
736,16	-20,68
736,34	-40,34
736,53	-34,61
736,71	-50,79
736,89	-57,75
737,08	-23,76
737,26	-47,72
737,44	-18,23
737,63	-57,34
737,81	-57,55
737,99	-78,23
738,18	-34,61
738,36	-4,10
738,54	-50,99
738,73	-56,32
738,91	-54,48
739,09	-27,03
739,28	-70,04
739,46	-75,16
739,64	-33,38
739,82	-38,09
740,01	-21,71
740,19	-26,21
740,37	-67,17
740,56	-36,25
740,74	-27,65
740,92	-41,37
741,11	-73,32
741,29	-10,24
741,47	-21,71
741,65	-55,70
741,84	-31,13
742,02	-41,98
742,20	-37,07
742,39	-32,36
742,57	-50,58
742,75	-20,89
742,93	-37,68
743,12	-60,62
743,30	-43,01
743,48	-9,22
743,67	-41,16
743,85	-37,89
744,03	-18,02
744,21	-48,13
744,40	-43,83
744,58	-36,45
744,76	-71,06
744,94	-24,58
745,13	-52,02
745,31	-41,16
745,49	-39,94
745,67	-35,02
745,86	-30,72
746,04	-41,16
746,22	-71,06
746,40	-70,04
746,59	-49,36
746,77	-43,83
746,95	-34,00
747,13	-41,57
747,32	-34,00
747,50	-63,69
747,68	-58,98
747,86	-38,30
748,05	-57,34
748,23	-4,51
748,41	-36,04
748,59	-56,32
748,77	-17,82
748,96	-39,12
749,14	-26,42
749,32	-37,27
749,50	-50,18
749,69	-52,02
749,87	-25,80
750,05	-26,83
750,23	-52,43
750,41	-28,06
750,60	-30,92
750,78	-54,07
750,96	-55,91
751,14	-47,10
751,32	-11,67
751,51	-45,26
751,69	-54,27
751,87	-23,76
752,05	-27,85
752,23	-21,30
752,42	-67,99
752,60	-19,05
752,78	-51,61
752,96	-65,53
753,14	-34,61
753,33	-43,21
753,51	-50,38
753,69	-43,62
753,87	-13,93
754,05	-32,15
754,23	-33,59
754,42	-15,77
754,60	-48,54
754,78	-16,79
754,96	-45,26
755,14	-82,94
755,32	-58,57
755,51	-26,83
755,69	-52,63
755,87	-63,28
756,05	-73,52
756,23	-44,65
756,41	-16,18
756,60	-45,26
756,78	-45,06
756,96	-37,27
757,14	-9,83
757,32	-49,36
757,50	-54,07
757,68	-41,37
757,87	-38,30
758,05	-44,44
758,23	-70,65
758,41	-77,00
758,59	-43,21
758,77	-45,06
758,95	-40,96
759,14	-14,95
759,32	-14,95
759,50	-21,09
759,68	-11,67
759,86	-16,18
760,04	15,56
760,22	6,14
760,40	-4,71
760,59	29,49
760,77	14,13
760,95	11,67
761,13	32,15
761,31	30,51
761,49	21,30
761,67	24,78
761,85	13,31
762,03	46,08
762,22	18,23
762,40	3,48
762,58	20,89
762,76	40,14
762,94	-10,04
763,12	24,58
763,30	27,03
763,48	-19,66
763,66	27,03
763,84	0,41
764,02	-8,19
764,21	10,85
764,39	-2,46
764,57	13,72
764,75	-22,32
764,93	-23,96
765,11	-10,04
765,29	1,23
765,47	-29,90
765,65	-1,84
765,83	-17,00
766,01	-15,77
766,19	11,26
766,37	-30,72
766,56	-26,62
766,74	-16,59
766,92	-48,95
767,10	12,90
767,28	-32,97
767,46	-15,56
767,64	-64,92
767,82	-52,22
768,00	-47,72
768,18	-66,76
768,36	-33,18
768,54	-22,53
768,72	-68,20
768,90	-35,84
769,08	-40,75
769,26	-74,75
769,44	-46,90
769,62	-40,96
769,80	-28,26
769,98	-51,81
770,16	-33,79
770,34	-45,46
770,52	-63,08
770,71	-58,37
770,89	-53,04
771,07	-61,03
771,25	-43,01
771,43	-43,21
771,61	-43,01
771,79	-53,04
771,97	-75,98
772,15	-56,73
772,33	-47,92
772,51	-56,73
772,69	-40,75
772,87	-49,77
773,05	-48,33
773,23	-42,19
773,41	-64,72
773,59	-51,81
773,77	-28,67
773,95	-32,56
774,13	-66,56
774,31	-47,10
774,49	-40,14
774,67	-25,80
774,85	-28,26
775,03	-52,22
775,21	-44,24
775,39	-49,36
775,57	-21,30
775,75	-47,72
775,93	-40,96
776,10	-66,15
776,28	-70,45
776,46	-42,19
776,64	-48,13
776,82	-42,19
777,00	173,87
777,18	-31,74
777,36	-2,87
777,54	-68,81
777,72	-44,65
777,90	-37,48
778,08	-29,08
778,26	-49,15
778,44	-56,73
778,62	-22,12
778,80	-51,20
778,98	-14,13
779,16	-69,43
779,34	-35,84
779,52	-37,07
779,70	-32,36
779,88	-37,48
780,05	-29,08
780,23	-47,31
780,41	-32,97
780,59	-30,92
780,77	-52,22
780,95	-43,62
781,13	-45,67
781,31	-64,51
781,49	-15,36
781,67	-50,38
781,85	-35,63
782,03	-13,31
782,21	-54,89
782,39	-37,48
782,56	-23,35
782,74	-63,69
782,92	-48,54
783,10	-9,22
783,28	-43,21
783,46	-56,73
783,64	-26,21
783,82	-15,15
784,00	-44,44
784,18	-7,58
784,35	-50,18
784,53	-38,50
784,71	-14,54
784,89	-21,71
785,07	-58,37
785,25	-45,87
785,43	-14,13
785,61	-57,14
785,79	-49,36
785,96	-44,24
786,14	-22,12
786,32	-21,91
786,50	9,83
786,68	-48,13
786,86	-60,01
787,04	-37,07
787,22	-53,45
787,39	-38,09
787,57	-40,14
787,75	-45,06
787,93	-43,62
788,11	-28,06
788,29	-61,23
788,47	-44,24
788,65	-40,14
788,82	-44,85
789,00	-22,73
789,18	-20,89
789,36	-12,90
789,54	-27,44
789,72	-43,42
789,89	-44,85
790,07	-24,58
790,25	-43,62
790,43	-27,03
790,61	-48,95
790,79	-2,05
790,96	-25,80
791,14	-13,11
791,32	-19,05
791,50	-39,12
791,68	-40,14
791,86	-10,65
792,03	-21,09
792,21	-43,42
792,39	-33,38
792,57	-25,19
792,75	-12,90
792,93	-14,75
793,10	-43,42
793,28	-16,38
793,46	-9,01
793,64	-7,37
793,82	-14,34
793,99	4,92
794,17	-22,53
794,35	-0,20
794,53	-15,36
794,71	-26,83
794,88	-57,14
795,06	-51,20
795,24	10,04
795,42	-25,19
795,60	-37,68
795,77	-18,64
795,95	-4,92
796,13	-34,41
796,31	-7,37
796,49	-38,91
796,66	-6,96
796,84	-51,40
797,02	-7,78
797,20	19,05
797,37	-30,31
797,55	-49,77
797,73	-19,87
797,91	14,34
798,08	13,72
798,26	-40,34
798,44	1,43
798,62	-50,18
798,80	-15,97
798,97	7,58
799,15	9,83
799,33	-31,74
799,51	5,12
799,68	-4,30
799,86	-6,55
800,04	-16,59
800,22	-26,01
800,39	-25,80
800,57	-15,56
800,75	-17,41
800,93	-44,65
801,10	-44,85
801,28	-28,67
801,46	-58,98
801,63	-11,67
801,81	-43,83
801,99	-30,11
802,17	-12,29
802,34	-17,20
802,52	-42,39
802,70	-8,81
802,88	2,87
803,05	-21,30
803,23	-16,18
803,41	-4,30
803,58	-45,67
803,76	-15,77
803,94	-20,68
804,12	-47,92
804,29	6,96
804,47	12,70
804,65	-27,44
804,82	-0,82
805,00	-1,43
805,18	-5,53
805,35	-18,43
805,53	5,94
805,71	-17,82
805,89	-36,25
806,06	-32,56
806,24	-4,71
806,42	-17,20
806,59	-20,68
806,77	-20,89
806,95	-36,25
807,12	-15,36
807,30	-14,34
807,48	-9,22
807,65	-29,70
807,83	16,38
808,01	-25,60
808,18	-9,42
808,36	-41,37
808,54	-20,68
808,71	2,66
808,89	26,83
809,07	-25,80
809,24	-6,96
809,42	-13,52
809,60	-6,55
809,77	-29,70
809,95	-3,69
810,13	-11,26
810,30	17,00
810,48	-9,63
810,66	-24,99
810,83	-15,56
811,01	-21,30
811,18	-18,64
811,36	-21,09
811,54	-12,49
811,71	-6,55
811,89	6,35
812,07	-49,36
812,24	-3,07
812,42	19,66
812,59	-11,67
812,77	9,83
812,95	27,85
813,12	-7,17
813,30	-19,46
813,48	-24,78
813,65	-1,64
813,83	7,58
814,00	2,05
814,18	7,78
814,36	-1,23
814,53	-16,59
814,71	4,30
814,88	-12,29
815,06	3,07
815,24	22,12
815,41	-6,35
815,59	44,03
815,76	-0,61
815,94	-1,02
816,12	4,92
816,29	29,70
816,47	16,79
816,64	17,61
816,82	0,00
817,00	7,99
817,17	4,10
817,35	1,64
817,52	-19,66
817,70	8,40
817,87	7,17
818,05	-5,73
818,23	-2,87
818,40	-30,72
818,58	6,35
818,75	-14,75
818,93	-7,17
819,10	11,67
819,28	15,36
819,46	-1,84
819,63	-10,44
819,81	-3,48
819,98	0,61
820,16	-14,54
820,33	9,22
820,51	-13,52
820,68	-13,93
820,86	6,55
821,03	-11,67
821,21	-5,94
821,39	1,64
821,56	-17,61
821,74	4,30
821,91	-29,49
822,09	7,17
822,26	-36,04
822,44	12,70
822,61	-16,38
822,79	9,63
822,96	-15,97
823,14	-5,12
823,31	4,92
823,49	-28,67
823,66	-4,51
823,84	-6,55
824,01	-16,59
824,19	-9,01
824,36	14,95
824,54	4,10
824,71	-13,93
824,89	-18,23
825,06	-11,67
825,24	-11,47
825,41	19,66
825,59	28,88
825,76	33,18
825,94	-15,56
826,11	-13,93
826,29	15,15
826,46	-3,48
826,64	14,34
826,81	10,85
826,99	9,01
827,16	-16,79
827,34	7,78
827,51	-10,04
827,69	-26,42
827,86	7,99
828,04	5,94
828,21	-4,92
828,39	14,95
828,56	12,90
828,74	1,43
828,91	0,82
829,09	-11,26
829,26	-11,06
829,43	-5,94
829,61	-1,02
829,78	15,56
829,96	-27,44
830,13	7,78
830,31	-3,28
830,48	3,89
830,66	15,77
830,83	6,76
831,01	27,65
831,18	17,00
831,35	26,83
831,53	-4,92
831,70	-19,46
831,88	-10,85
832,05	30,72
832,23	-7,17
832,40	19,05
832,57	-17,41
832,75	25,60
832,92	-16,79
833,10	41,57
833,27	-20,68
833,45	-8,60
833,62	5,94
833,79	5,53
833,97	-27,03
834,14	38,09
834,32	22,32
834,49	2,05
834,66	14,95
834,84	14,34
835,01	17,41
835,19	-3,69
835,36	6,76
835,53	30,72
835,71	34,82
835,88	32,97
836,06	6,14
836,23	2,05
836,40	-8,40
836,58	16,38
836,75	-7,17
836,93	13,72
837,10	-9,01
837,27	13,93
837,45	9,01
837,62	-23,76
837,79	19,05
837,97	23,96
838,14	-45,26
838,32	13,31
838,49	27,65
838,66	8,60
838,84	51,81
839,01	-9,42
839,18	21,09
839,36	-2,05
839,53	7,78
839,70	-13,93
839,88	22,94
840,05	5,73
840,23	17,00
840,40	-8,19
840,57	-21,50
840,75	1,64
840,92	-17,00
841,09	-11,88
841,27	-18,84
841,44	-18,02
841,61	-0,41
841,79	4,92
841,96	22,53
842,13	5,94
842,31	2,66
842,48	14,54
842,65	-4,71
842,83	-0,82
843,00	2,46
843,17	13,11
843,35	-22,32
843,52	31,33
843,69	14,34
843,86	2,87
844,04	7,78
844,21	-1,84
844,38	38,50
844,56	17,82
844,73	3,07
844,90	11,06
845,08	36,25
845,25	-6,76
845,42	-8,60
845,60	4,10
845,77	27,24
845,94	3,89
846,11	7,78
846,29	17,82
846,46	-4,71
846,63	13,72
846,81	20,89
846,98	-16,79
847,15	-1,23
847,32	6,76
847,50	6,55
847,67	23,55
847,84	-17,61
848,01	22,73
848,19	-10,44
848,36	8,19
848,53	6,35
848,71	-1,02
848,88	15,77
849,05	-5,73
849,22	1,23
849,40	11,67
849,57	21,71
849,74	13,11
849,91	-7,58
850,09	22,32
850,26	-8,60
850,43	10,65
850,60	-20,48
850,78	5,94
850,95	24,99
851,12	32,56
851,29	42,80
851,47	3,89
851,64	17,41
851,81	-0,82
851,98	28,06
852,15	25,19
852,33	-14,34
852,50	11,26
852,67	22,94
852,84	21,91
853,02	8,19
853,19	12,90
853,36	5,73
853,53	44,24
853,70	43,01
853,88	13,93
854,05	22,94
854,22	25,60
854,39	19,66
854,56	57,55
854,74	19,25
854,91	20,68
855,08	11,67
855,25	20,07
855,42	15,36
855,60	32,97
855,77	7,17
855,94	19,87
856,11	14,75
856,28	37,68
856,46	7,78
856,63	9,22
856,80	3,07
856,97	21,09
857,14	13,11
857,31	17,20
857,49	12,90
857,66	24,99
857,83	-5,94
858,00	27,85
858,17	3,48
858,34	12,49
858,52	45,67
858,69	-1,84
858,86	25,80
859,03	-1,64
859,20	30,92
859,37	7,37
859,55	-19,66
859,72	33,79
859,89	14,95
860,06	30,31
860,23	-0,20
860,40	2,46
860,57	1,84
860,75	-16,38
860,92	36,86
861,09	-10,04
861,26	11,06
861,43	15,77
861,60	37,48
861,77	29,90
861,95	20,68
862,12	45,67
862,29	18,84
862,46	1,23
862,63	28,06
862,80	34,61
862,97	17,82
863,14	10,65
863,31	-4,71
863,49	-13,93
863,66	41,16
863,83	7,58
864,00	-17,82
864,17	9,42
864,34	38,71
864,51	20,89
864,68	34,20
864,85	10,04
865,02	48,54
865,20	30,51
865,37	-13,52
865,54	-30,11
865,71	6,76
865,88	38,71
866,05	15,56
866,22	35,63
866,39	14,95
866,56	10,24
866,73	5,73
866,90	-25,19
867,07	16,79
867,25	52,43
867,42	32,56
867,59	31,74
867,76	13,52
867,93	-1,23
868,10	16,59
868,27	48,74
868,44	27,85
868,61	15,56
868,78	10,85
868,95	52,63
869,12	6,55
869,29	21,09
869,46	5,12
869,63	23,55
869,80	-8,40
869,97	0,41
870,14	-2,46
870,32	39,53
870,49	-9,22
870,66	23,35
870,83	4,30
871,00	28,67
871,17	9,01
871,34	-19,05
871,51	33,38
871,68	-9,01
871,85	-21,91
872,02	29,29
872,19	45,67
872,36	31,13
872,53	42,60
872,70	26,01
872,87	24,58
873,04	34,41
873,21	4,30
873,38	35,23
873,55	30,31
873,72	-1,02
873,89	31,95
874,06	34,61
874,23	34,41
874,40	36,45
874,57	36,86
874,74	37,27
874,91	1,64
875,08	0,82
875,25	11,26
875,42	-15,56
875,59	30,72
875,76	47,92
875,93	7,99
876,10	29,08
876,27	15,36
876,44	-12,29
876,61	0,00
876,78	38,50
876,95	7,58
877,12	46,28
877,29	22,73
877,46	21,91
877,62	20,89
877,79	23,35
877,96	11,47
878,13	-4,71
878,30	42,19
878,47	-16,59
878,64	10,65
878,81	54,89
878,98	37,27
879,15	32,77
879,32	23,35
879,49	6,55
879,66	27,03
879,83	3,89
880,00	51,20
880,17	33,38
880,34	3,89
880,51	28,26
880,67	36,66
880,84	10,65
881,01	20,68
881,18	8,19
881,35	18,64
881,52	-10,24
881,69	-2,87
881,86	43,21
882,03	17,00
882,20	26,42
882,37	8,40
882,54	10,04
882,70	36,04
882,87	15,56
883,04	35,02
883,21	15,97
883,38	15,15
883,55	23,14
883,72	2,46
883,89	-1,84
884,06	-9,22
884,23	20,48
884,39	-4,30
884,56	-5,73
884,73	23,76
884,90	31,33
885,07	37,89
885,24	22,94
885,41	23,14
885,58	55,09
885,74	16,18
885,91	50,38
886,08	29,49
886,25	8,19
886,42	11,47
886,59	41,57
886,76	-5,32
886,93	-8,19
887,09	17,20
887,26	-0,41
887,43	2,66
887,60	18,84
887,77	38,09
887,94	30,92
888,10	11,47
888,27	30,72
888,44	21,50
888,61	36,04
888,78	2,05
888,95	9,83
889,12	64,10
889,28	28,26
889,45	16,79
889,62	22,94
889,79	22,32
889,96	66,15
890,13	55,91
890,29	-0,20
890,46	-11,26
890,63	29,29
890,80	8,60
890,97	-3,48
891,13	2,87
891,30	12,29
891,47	28,26
891,64	19,46
891,81	27,85
891,98	34,82
892,14	55,91
892,31	34,20
892,48	45,87
892,65	4,71
892,82	31,95
892,98	23,96
893,15	28,26
893,32	14,54
>>>>>End Processed Spectral Data<<<<<
