SpectraSuite Datei
++++++++++++++++++++++++++++++++++++
Datum: Tue Dec 10 15:04:13 CET 2019
Benutzer: Lichtquellen1
Dark-Spektrum vorhanden: Ja
Referenz-Spektrum vorhanden: Nein
Zahl der probierten Teilspektren: 1
Spektrometer: USB4F05832
Integrationszeit (usec): 100000 (USB4F05832)
Spektren Durchschnitt berechnet: 10 (USB4F05832)
Boxcar Glättung: 0 (USB4F05832)
Dunkelstromkorrektur: Nein (USB4F05832)
Puls/Lampe aktiviert: Nein (USB4F05832)
Correct for Detector Non-linearity: Nein (USB4F05832)
Streulichtkorrektur: Nein (USB4F05832)
Anzahl Pixel in verarbeitetem Spektrum: 3648
>>>>>Begin Processed Spectral Data<<<<<
177,54	21,50
177,75	21,50
177,97	21,50
178,19	4,10
178,41	11,88
178,63	41,37
178,85	-8,40
179,07	33,59
179,29	28,26
179,51	23,55
179,73	48,54
179,95	-2,25
180,17	34,20
180,39	57,75
180,61	46,28
180,83	17,82
181,05	16,59
181,27	31,13
181,49	39,32
181,71	16,38
181,92	16,79
182,14	40,34
182,36	23,76
182,58	32,15
182,80	5,73
183,02	44,85
183,24	33,18
183,46	16,59
183,68	38,71
183,90	13,11
184,12	30,72
184,34	29,29
184,56	52,63
184,78	30,31
185,00	39,32
185,21	13,93
185,43	20,07
185,65	35,84
185,87	33,18
186,09	46,90
186,31	36,04
186,53	34,61
186,75	33,18
186,97	51,20
187,19	31,13
187,41	-23,14
187,63	32,77
187,84	13,31
188,06	51,81
188,28	19,66
188,50	23,14
188,72	60,42
188,94	41,78
189,16	42,19
189,38	19,25
189,60	36,25
189,82	6,35
190,03	2,25
190,25	39,12
190,47	35,23
190,69	17,82
190,91	22,53
191,13	41,98
191,35	46,69
191,57	11,26
191,79	24,78
192,01	5,73
192,22	24,99
192,44	36,04
192,66	19,25
192,88	16,18
193,10	25,19
193,32	42,60
193,54	17,00
193,76	4,10
193,98	0,82
194,19	16,59
194,41	23,55
194,63	5,94
194,85	12,70
195,07	36,86
195,29	15,97
195,51	58,98
195,73	36,25
195,94	21,91
196,16	35,23
196,38	11,88
196,60	18,02
196,82	45,87
197,04	26,21
197,26	31,95
197,48	12,90
197,69	26,01
197,91	49,36
198,13	18,23
198,35	19,46
198,57	23,96
198,79	26,21
199,01	6,35
199,22	27,85
199,44	20,27
199,66	18,02
199,88	23,55
200,10	4,92
200,32	27,65
200,54	42,60
200,75	56,32
200,97	43,62
201,19	47,31
201,41	23,14
201,63	31,95
201,85	15,77
202,06	28,67
202,28	32,56
202,50	12,90
202,72	19,46
202,94	12,70
203,16	18,64
203,38	42,39
203,59	18,64
203,81	42,39
204,03	24,58
204,25	34,61
204,47	30,11
204,69	43,42
204,90	21,91
205,12	13,72
205,34	29,29
205,56	5,32
205,78	26,42
206,00	16,59
206,21	47,10
206,43	44,65
206,65	31,13
206,87	31,13
207,09	35,63
207,30	44,85
207,52	34,82
207,74	4,10
207,96	3,89
208,18	38,30
208,40	6,96
208,61	61,64
208,83	45,87
209,05	24,78
209,27	24,37
209,49	27,03
209,70	58,98
209,92	43,83
210,14	40,34
210,36	27,24
210,58	42,80
210,79	18,64
211,01	24,58
211,23	34,41
211,45	9,22
211,67	7,17
211,88	18,43
212,10	37,07
212,32	21,91
212,54	37,27
212,76	3,69
212,97	1,64
213,19	31,54
213,41	30,31
213,63	19,87
213,85	16,59
214,06	23,96
214,28	33,38
214,50	23,35
214,72	15,97
214,94	10,04
215,15	58,37
215,37	70,65
215,59	62,26
215,81	39,12
216,02	14,95
216,24	30,31
216,46	28,26
216,68	47,31
216,90	39,73
217,11	22,53
217,33	0,61
217,55	17,82
217,77	41,98
217,98	33,79
218,20	32,36
218,42	30,92
218,64	38,50
218,85	59,80
219,07	5,12
219,29	47,31
219,51	45,26
219,73	36,45
219,94	16,18
220,16	48,13
220,38	49,15
220,60	22,32
220,81	6,55
221,03	23,55
221,25	37,48
221,47	35,23
221,68	31,13
221,90	36,04
222,12	48,33
222,34	66,76
222,55	31,13
222,77	10,24
222,99	47,72
223,21	0,61
223,42	42,19
223,64	18,23
223,86	20,07
224,08	33,79
224,29	69,02
224,51	25,19
224,73	47,51
224,94	2,66
225,16	57,96
225,38	42,19
225,60	30,51
225,81	20,27
226,03	27,03
226,25	-16,38
226,47	22,73
226,68	22,73
226,90	7,37
227,12	37,48
227,33	-2,25
227,55	38,50
227,77	26,42
227,99	13,93
228,20	48,54
228,42	46,69
228,64	13,72
228,86	25,39
229,07	40,14
229,29	14,54
229,51	17,41
229,72	12,29
229,94	17,00
230,16	46,49
230,38	17,61
230,59	30,92
230,81	-2,66
231,03	13,52
231,24	-12,49
231,46	43,83
231,68	1,84
231,89	-13,72
232,11	30,72
232,33	35,23
232,55	43,21
232,76	35,84
232,98	33,59
233,20	16,38
233,41	11,88
233,63	27,24
233,85	27,24
234,06	-0,61
234,28	15,77
234,50	48,13
234,71	25,19
234,93	24,37
235,15	21,71
235,37	-1,43
235,58	8,19
235,80	-3,28
236,02	69,02
236,23	12,29
236,45	31,13
236,67	-9,01
236,88	6,55
237,10	12,49
237,32	26,42
237,53	43,21
237,75	-4,10
237,97	25,80
238,18	35,23
238,40	25,60
238,62	21,71
238,83	51,20
239,05	4,30
239,27	23,35
239,48	32,77
239,70	18,64
239,92	39,12
240,13	34,41
240,35	46,90
240,57	27,24
240,78	29,29
241,00	43,83
241,22	36,45
241,43	52,63
241,65	22,53
241,87	26,01
242,08	23,14
242,30	20,07
242,52	21,71
242,73	37,68
242,95	23,14
243,16	31,33
243,38	31,13
243,60	64,31
243,81	60,01
244,03	13,72
244,25	23,55
244,46	23,96
244,68	9,22
244,90	32,36
245,11	20,89
245,33	26,21
245,55	49,56
245,76	31,74
245,98	14,95
246,19	33,59
246,41	18,43
246,63	48,33
246,84	-2,05
247,06	42,60
247,28	33,59
247,49	17,00
247,71	30,72
247,92	21,09
248,14	34,82
248,36	68,81
248,57	39,32
248,79	35,02
249,01	40,14
249,22	17,82
249,44	15,15
249,65	18,02
249,87	37,48
250,09	26,01
250,30	27,85
250,52	20,27
250,73	14,34
250,95	20,48
251,17	31,33
251,38	29,29
251,60	21,91
251,81	37,48
252,03	56,52
252,25	20,27
252,46	9,42
252,68	43,21
252,89	33,38
253,11	8,40
253,33	70,45
253,54	39,53
253,76	60,42
253,97	16,79
254,19	16,18
254,41	32,15
254,62	38,30
254,84	12,70
255,05	31,13
255,27	18,64
255,49	29,70
255,70	33,38
255,92	-5,94
256,13	15,15
256,35	37,27
256,56	43,01
256,78	28,06
257,00	-10,04
257,21	35,43
257,43	76,80
257,64	37,89
257,86	34,20
258,08	34,61
258,29	0,82
258,51	38,71
258,72	21,30
258,94	7,99
259,15	43,42
259,37	28,67
259,59	32,15
259,80	32,15
260,02	15,56
260,23	5,94
260,45	17,00
260,66	18,23
260,88	38,50
261,09	57,75
261,31	53,25
261,53	64,51
261,74	18,64
261,96	30,92
262,17	2,87
262,39	46,28
262,60	35,63
262,82	33,79
263,03	32,77
263,25	44,24
263,46	29,49
263,68	26,21
263,90	54,27
264,11	5,12
264,33	37,48
264,54	15,36
264,76	4,51
264,97	34,00
265,19	20,48
265,40	52,02
265,62	20,68
265,83	32,77
266,05	24,78
266,26	23,35
266,48	27,24
266,70	47,72
266,91	38,30
267,13	34,41
267,34	50,58
267,56	26,01
267,77	36,45
267,99	19,87
268,20	-4,71
268,42	39,94
268,63	40,96
268,85	45,26
269,06	21,50
269,28	3,69
269,49	0,41
269,71	52,02
269,92	11,26
270,14	23,35
270,35	12,70
270,57	40,75
270,78	57,14
271,00	48,33
271,21	25,60
271,43	45,46
271,64	-15,15
271,86	57,75
272,07	37,07
272,29	40,55
272,50	18,23
272,72	10,04
272,93	28,06
273,15	47,31
273,36	25,39
273,58	31,54
273,79	40,96
274,01	36,66
274,22	9,01
274,44	63,69
274,65	11,26
274,87	45,67
275,08	25,39
275,30	39,32
275,51	42,39
275,73	34,20
275,94	26,42
276,16	9,42
276,37	38,30
276,59	69,84
276,80	46,28
277,02	56,52
277,23	11,67
277,45	44,03
277,66	30,11
277,88	0,00
278,09	70,04
278,30	13,52
278,52	30,31
278,73	37,27
278,95	40,96
279,16	21,50
279,38	6,55
279,59	26,01
279,81	14,34
280,02	63,69
280,24	42,39
280,45	26,62
280,67	32,36
280,88	54,48
281,09	22,12
281,31	24,99
281,52	7,17
281,74	45,46
281,95	46,69
282,17	40,55
282,38	44,65
282,60	21,30
282,81	36,66
283,02	9,42
283,24	29,08
283,45	30,31
283,67	17,20
283,88	14,13
284,10	39,12
284,31	26,83
284,53	33,79
284,74	5,12
284,95	61,64
285,17	30,31
285,38	-6,96
285,60	-8,60
285,81	38,91
286,03	20,68
286,24	11,26
286,45	41,78
286,67	35,84
286,88	31,74
287,10	0,41
287,31	12,90
287,53	13,31
287,74	30,11
287,95	3,48
288,17	23,55
288,38	33,38
288,60	50,38
288,81	44,44
289,02	49,36
289,24	17,41
289,45	48,54
289,67	44,24
289,88	14,13
290,10	25,19
290,31	-0,61
290,52	18,02
290,74	18,84
290,95	27,85
291,17	56,32
291,38	26,42
291,59	31,13
291,81	13,72
292,02	48,13
292,24	35,43
292,45	6,14
292,66	24,58
292,88	38,71
293,09	54,68
293,31	27,24
293,52	26,83
293,73	47,72
293,95	24,58
294,16	13,52
294,37	10,24
294,59	27,24
294,80	25,60
295,02	31,74
295,23	10,24
295,44	9,22
295,66	49,97
295,87	12,29
296,09	34,20
296,30	37,68
296,51	24,99
296,73	14,13
296,94	22,73
297,15	38,50
297,37	42,60
297,58	41,78
297,79	27,44
298,01	24,78
298,22	14,75
298,44	44,65
298,65	40,75
298,86	17,00
299,08	4,51
299,29	34,00
299,50	43,83
299,72	36,25
299,93	42,39
300,14	26,42
300,36	17,41
300,57	40,75
300,79	55,30
301,00	13,11
301,21	0,82
301,43	15,77
301,64	19,46
301,85	35,02
302,07	50,99
302,28	54,89
302,49	53,25
302,71	1,64
302,92	64,10
303,13	25,60
303,35	-1,64
303,56	59,60
303,77	38,71
303,99	45,46
304,20	17,82
304,41	12,29
304,63	60,21
304,84	41,78
305,05	47,31
305,27	4,92
305,48	20,89
305,69	28,67
305,91	-1,43
306,12	12,70
306,33	5,53
306,55	55,09
306,76	12,70
306,97	41,57
307,19	1,64
307,40	39,94
307,61	28,67
307,82	36,86
308,04	17,20
308,25	32,56
308,46	-18,84
308,68	46,28
308,89	18,43
309,10	4,30
309,32	22,94
309,53	49,77
309,74	34,82
309,96	15,97
310,17	4,51
310,38	30,31
310,59	13,93
310,81	40,75
311,02	39,53
311,23	45,06
311,45	11,88
311,66	52,63
311,87	4,10
312,09	39,12
312,30	43,83
312,51	39,73
312,72	23,55
312,94	20,48
313,15	20,89
313,36	19,66
313,58	5,94
313,79	25,60
314,00	31,13
314,21	48,13
314,43	46,08
314,64	12,08
314,85	18,84
315,06	-9,01
315,28	51,81
315,49	75,16
315,70	17,00
315,92	48,33
316,13	44,65
316,34	12,49
316,55	13,93
316,77	25,19
316,98	48,54
317,19	23,76
317,40	71,88
317,62	22,94
317,83	47,72
318,04	17,41
318,25	32,77
318,47	18,23
318,68	36,86
318,89	32,97
319,11	39,12
319,32	47,31
319,53	39,53
319,74	12,08
319,96	31,13
320,17	13,52
320,38	41,98
320,59	26,83
320,81	2,87
321,02	19,46
321,23	27,03
321,44	44,44
321,65	26,83
321,87	11,67
322,08	8,60
322,29	0,00
322,50	2,46
322,72	46,08
322,93	34,61
323,14	34,61
323,35	23,35
323,57	18,43
323,78	47,92
323,99	26,21
324,20	54,89
324,41	14,34
324,63	35,43
324,84	16,59
325,05	35,63
325,26	29,29
325,48	34,61
325,69	11,67
325,90	15,15
326,11	40,75
326,32	51,40
326,54	47,51
326,75	-3,89
326,96	23,96
327,17	40,96
327,39	-1,02
327,60	19,66
327,81	67,99
328,02	53,04
328,23	51,40
328,45	22,53
328,66	42,60
328,87	49,56
329,08	11,67
329,29	45,87
329,51	0,41
329,72	-19,05
329,93	3,89
330,14	77,21
330,35	24,99
330,56	12,29
330,78	31,33
330,99	22,73
331,20	53,04
331,41	37,68
331,62	32,56
331,84	5,32
332,05	33,38
332,26	31,33
332,47	57,34
332,68	27,65
332,90	31,95
333,11	21,71
333,32	14,13
333,53	21,91
333,74	-14,54
333,95	29,70
334,17	25,39
334,38	25,80
334,59	24,58
334,80	20,07
335,01	37,27
335,22	1,23
335,44	33,38
335,65	4,92
335,86	2,46
336,07	-0,61
336,28	41,78
336,49	43,21
336,71	30,92
336,92	42,80
337,13	16,59
337,34	36,45
337,55	26,42
337,76	19,25
337,97	15,15
338,19	33,79
338,40	2,25
338,61	60,42
338,82	1,43
339,03	47,31
339,24	34,82
339,45	46,28
339,67	27,44
339,88	41,16
340,09	34,61
340,30	40,75
340,51	45,67
340,72	27,85
340,93	18,43
341,15	30,11
341,36	18,84
341,57	11,26
341,78	23,14
341,99	21,09
342,20	29,90
342,41	45,06
342,62	51,20
342,84	28,88
343,05	-8,19
343,26	14,34
343,47	43,62
343,68	45,06
343,89	27,03
344,10	24,17
344,31	30,72
344,53	-13,11
344,74	-2,05
344,95	8,60
345,16	11,06
345,37	21,30
345,58	33,18
345,79	32,77
346,00	2,66
346,21	33,59
346,42	17,82
346,64	-9,22
346,85	28,06
347,06	45,67
347,27	24,78
347,48	46,28
347,69	28,47
347,90	14,13
348,11	29,49
348,32	24,78
348,53	18,84
348,75	16,18
348,96	40,14
349,17	24,58
349,38	39,94
349,59	54,48
349,80	0,41
350,01	41,78
350,22	0,41
350,43	4,10
350,64	28,26
350,85	20,89
351,06	32,56
351,28	20,27
351,49	13,93
351,70	34,00
351,91	35,84
352,12	46,08
352,33	13,93
352,54	-15,56
352,75	34,00
352,96	16,79
353,17	8,19
353,38	33,18
353,59	4,71
353,80	50,38
354,01	-0,61
354,22	42,19
354,44	11,88
354,65	35,63
354,86	19,05
355,07	36,04
355,28	16,38
355,49	42,19
355,70	13,93
355,91	10,24
356,12	27,44
356,33	0,61
356,54	29,08
356,75	48,33
356,96	43,83
357,17	37,89
357,38	53,25
357,59	21,71
357,80	28,88
358,01	47,92
358,22	19,05
358,43	56,73
358,64	20,48
358,85	45,87
359,07	41,16
359,28	47,51
359,49	13,72
359,70	40,55
359,91	40,55
360,12	54,68
360,33	-2,46
360,54	38,91
360,75	47,10
360,96	55,30
361,17	23,96
361,38	27,24
361,59	39,94
361,80	3,48
362,01	49,15
362,22	23,96
362,43	33,79
362,64	27,44
362,85	24,99
363,06	36,86
363,27	34,41
363,48	61,44
363,69	32,97
363,90	22,73
364,11	22,94
364,32	33,59
364,53	3,89
364,74	-1,64
364,95	18,02
365,16	32,15
365,37	18,02
365,58	20,48
365,79	45,46
366,00	54,68
366,21	-7,99
366,42	42,39
366,63	3,89
366,84	67,17
367,05	43,62
367,26	33,38
367,47	42,19
367,68	43,62
367,89	30,11
368,10	55,30
368,31	54,68
368,52	18,43
368,73	26,83
368,94	45,26
369,15	66,15
369,36	28,67
369,57	56,73
369,78	34,41
369,99	13,31
370,20	54,48
370,40	17,41
370,61	70,86
370,82	40,75
371,03	61,03
371,24	12,49
371,45	50,79
371,66	30,92
371,87	57,96
372,08	34,00
372,29	-3,89
372,50	1,23
372,71	24,17
372,92	38,50
373,13	14,13
373,34	37,68
373,55	41,98
373,76	35,23
373,97	16,38
374,18	41,37
374,39	19,87
374,60	40,55
374,81	4,51
375,01	24,58
375,22	-6,96
375,43	32,56
375,64	29,08
375,85	14,95
376,06	47,72
376,27	30,51
376,48	51,61
376,69	1,23
376,90	32,77
377,11	22,94
377,32	24,58
377,53	9,83
377,74	35,63
377,94	16,79
378,15	39,94
378,36	20,07
378,57	22,73
378,78	23,14
378,99	18,23
379,20	6,55
379,41	42,19
379,62	-4,10
379,83	29,29
380,04	37,48
380,25	55,50
380,45	47,72
380,66	35,02
380,87	51,81
381,08	-10,24
381,29	29,29
381,50	62,26
381,71	43,83
381,92	36,66
382,13	53,45
382,34	24,17
382,55	47,31
382,75	32,77
382,96	23,96
383,17	43,62
383,38	48,33
383,59	44,85
383,80	10,24
384,01	56,52
384,22	43,83
384,43	35,02
384,63	35,84
384,84	6,55
385,05	35,63
385,26	31,74
385,47	57,14
385,68	59,39
385,89	43,21
386,10	26,01
386,30	35,63
386,51	23,14
386,72	36,25
386,93	35,23
387,14	36,45
387,35	38,30
387,56	30,51
387,77	14,54
387,97	49,15
388,18	24,58
388,39	53,45
388,60	20,27
388,81	23,35
389,02	53,66
389,23	19,25
389,43	15,56
389,64	57,96
389,85	35,84
390,06	20,68
390,27	49,15
390,48	13,72
390,69	24,58
390,89	46,08
391,10	75,77
391,31	47,10
391,52	49,56
391,73	39,94
391,94	40,14
392,14	45,06
392,35	29,90
392,56	50,18
392,77	23,14
392,98	32,56
393,19	40,55
393,39	61,23
393,60	80,28
393,81	63,69
394,02	48,95
394,23	47,92
394,44	65,13
394,64	45,87
394,85	61,64
395,06	24,58
395,27	7,78
395,48	36,25
395,69	13,52
395,89	48,54
396,10	30,92
396,31	54,48
396,52	17,00
396,73	28,47
396,93	33,59
397,14	46,90
397,35	51,40
397,56	28,06
397,77	39,12
397,97	41,57
398,18	63,69
398,39	49,56
398,60	38,30
398,81	52,02
399,01	52,22
399,22	64,51
399,43	53,66
399,64	51,20
399,85	72,91
400,05	64,31
400,26	79,87
400,47	53,04
400,68	52,63
400,89	41,16
401,09	63,90
401,30	57,55
401,51	98,10
401,72	70,65
401,93	92,16
402,13	47,31
402,34	67,58
402,55	87,24
402,76	84,99
402,96	80,08
403,17	84,17
403,38	72,91
403,59	78,64
403,80	74,96
404,00	82,33
404,21	94,00
404,42	75,77
404,63	91,54
404,83	92,57
405,04	105,47
405,25	126,56
405,46	117,14
405,66	121,24
405,87	82,53
406,08	75,37
406,29	95,23
406,49	116,12
406,70	97,69
406,91	80,69
407,12	99,53
407,32	86,01
407,53	96,25
407,74	96,46
407,95	112,23
408,15	93,80
408,36	62,26
408,57	86,01
408,78	105,27
408,98	103,22
409,19	133,73
409,40	91,54
409,61	107,52
409,81	123,90
410,02	96,87
410,23	107,31
410,44	144,59
410,64	135,58
410,85	124,72
411,06	111,61
411,26	145,00
411,47	158,31
411,68	125,54
411,89	90,73
412,09	80,28
412,30	162,81
412,51	128,61
412,72	149,91
412,92	108,13
413,13	116,12
413,34	129,43
413,54	135,17
413,75	129,02
413,96	136,19
414,17	141,51
414,37	109,98
414,58	139,88
414,79	120,01
414,99	159,13
415,20	130,46
415,41	154,62
415,61	131,89
415,82	136,39
416,03	168,75
416,24	118,17
416,44	160,56
416,65	159,33
416,86	134,96
417,06	149,09
417,27	122,26
417,48	128,82
417,68	148,48
417,89	158,31
418,10	134,96
418,30	124,72
418,51	145,61
418,72	125,34
418,92	146,63
419,13	166,09
419,34	152,78
419,55	131,89
419,75	147,86
419,96	129,84
420,17	110,39
420,37	167,93
420,58	156,46
420,79	158,10
420,99	131,27
421,20	159,33
421,41	137,42
421,61	122,06
421,82	132,71
422,03	139,26
422,23	133,32
422,44	160,36
422,65	155,44
422,85	174,90
423,06	130,25
423,26	149,09
423,47	182,68
423,68	175,92
423,88	156,46
424,09	181,86
424,30	174,08
424,50	159,54
424,71	164,86
424,92	146,84
425,12	160,15
425,33	127,38
425,54	174,90
425,74	149,30
425,95	148,68
426,15	185,34
426,36	151,14
426,57	180,63
426,77	190,05
426,98	169,16
427,19	158,92
427,39	162,61
427,60	158,31
427,81	151,96
428,01	158,92
428,22	160,56
428,42	158,31
428,63	179,40
428,84	143,36
429,04	143,77
429,25	148,48
429,45	126,97
429,66	151,96
429,87	174,49
430,07	177,56
430,28	145,20
430,49	137,21
430,69	174,49
430,90	160,77
431,10	149,50
431,31	155,24
431,52	167,52
431,72	113,87
431,93	94,62
432,13	138,03
432,34	134,76
432,55	144,18
432,75	140,08
432,96	173,67
433,16	163,22
433,37	155,44
433,58	146,43
433,78	111,00
433,99	159,13
434,19	174,28
434,40	160,56
434,60	182,47
434,81	186,57
435,02	146,84
435,22	190,46
435,43	184,52
435,63	200,91
435,84	189,23
436,05	170,60
436,25	138,44
436,46	186,57
436,66	181,65
436,87	153,80
437,07	116,53
437,28	178,58
437,48	170,80
437,69	203,77
437,90	197,63
438,10	181,65
438,31	168,75
438,51	183,70
438,72	186,16
438,92	157,69
439,13	191,08
439,34	214,63
439,54	199,88
439,75	162,20
439,95	215,86
440,16	193,33
440,36	172,03
440,57	202,54
440,77	190,67
440,98	158,51
441,18	178,79
441,39	178,79
441,60	192,51
441,80	201,52
442,01	181,04
442,21	191,89
442,42	171,62
442,62	184,93
442,83	173,87
443,03	169,57
443,24	197,42
443,44	186,57
443,65	189,23
443,85	184,93
444,06	193,53
444,26	181,45
444,47	192,92
444,67	199,88
444,88	181,86
445,09	194,76
445,29	201,32
445,50	184,93
445,70	209,30
445,91	193,94
446,11	196,81
446,32	215,45
446,52	205,62
446,73	224,25
446,93	204,18
447,14	183,91
447,34	207,05
447,55	179,40
447,75	185,96
447,96	192,92
448,16	193,33
448,37	209,30
448,57	211,35
448,78	208,89
448,98	216,06
449,19	215,65
449,39	204,39
449,60	176,74
449,80	216,88
450,01	230,40
450,21	204,80
450,42	218,72
450,62	211,76
450,83	216,27
451,03	222,82
451,23	227,32
451,44	218,31
451,64	227,73
451,85	229,58
452,05	217,29
452,26	209,30
452,46	229,37
452,67	223,43
452,87	216,27
453,08	226,30
453,28	224,87
453,49	233,47
453,69	215,45
453,90	190,87
454,10	221,18
454,31	197,83
454,51	205,00
454,71	225,48
454,92	215,86
455,12	188,62
455,33	217,49
455,53	230,40
455,74	216,06
455,94	229,17
456,15	244,12
456,35	234,08
456,55	199,88
456,76	252,72
456,96	237,15
457,17	238,18
457,37	247,19
457,58	239,00
457,78	214,01
457,99	243,09
458,19	228,55
458,39	269,10
458,60	272,18
458,80	248,01
459,01	246,99
459,21	236,95
459,42	255,79
459,62	223,23
459,82	241,87
460,03	272,79
460,23	259,68
460,44	255,38
460,64	234,90
460,85	275,86
461,05	208,89
461,25	244,12
461,46	266,65
461,66	264,19
461,87	235,11
462,07	262,96
462,27	273,81
462,48	249,44
462,68	258,45
462,89	215,65
463,09	240,43
463,29	255,79
463,50	254,97
463,70	271,36
463,91	262,96
464,11	238,79
464,31	275,45
464,52	242,07
464,72	253,33
464,93	267,26
465,13	310,47
465,33	282,41
465,54	214,01
465,74	236,54
465,95	305,76
466,15	239,61
466,35	245,76
466,56	274,84
466,76	289,58
466,96	255,59
467,17	250,26
467,37	247,60
467,58	266,03
467,78	264,39
467,98	262,14
468,19	231,83
468,39	286,92
468,59	294,70
468,80	305,35
469,00	259,48
469,21	260,50
469,41	285,28
469,61	310,47
469,82	271,15
470,02	254,36
470,22	270,74
470,43	309,86
470,63	286,92
470,83	277,50
471,04	293,47
471,24	277,50
471,45	256,82
471,65	302,69
471,85	259,89
472,06	282,21
472,26	273,61
472,46	277,91
472,67	307,60
472,87	307,60
473,07	308,22
473,28	253,33
473,48	314,36
473,68	332,39
473,89	309,86
474,09	326,65
474,29	287,94
474,50	290,20
474,70	298,80
474,90	319,89
475,11	321,74
475,31	309,04
475,51	326,04
475,72	314,57
475,92	305,15
476,12	326,45
476,33	352,46
476,53	307,40
476,73	295,11
476,93	342,01
477,14	278,93
477,34	344,67
477,54	310,88
477,75	348,56
477,95	325,83
478,15	320,71
478,36	325,42
478,56	342,42
478,76	346,11
478,97	334,23
479,17	359,62
479,37	355,32
479,57	314,77
479,78	336,69
479,98	355,32
480,18	358,39
480,39	349,18
480,59	350,20
480,79	370,48
480,99	325,22
481,20	345,08
481,40	362,08
481,60	412,46
481,81	386,45
482,01	349,59
482,21	359,01
482,41	358,19
482,62	366,79
482,82	389,11
483,02	383,38
483,23	359,01
483,43	357,78
483,63	398,94
483,83	404,88
484,04	350,41
484,24	372,73
484,44	384,61
484,64	361,26
484,85	377,85
485,05	374,37
485,25	411,85
485,45	415,53
485,66	387,27
485,86	339,96
486,06	388,70
486,26	412,87
486,47	381,33
486,67	383,99
486,87	374,37
487,07	379,08
487,28	334,02
487,48	368,02
487,68	363,51
487,88	347,95
488,09	359,01
488,29	373,14
488,49	372,73
488,69	413,48
488,90	378,46
489,10	376,42
489,30	372,32
489,50	390,96
489,71	377,44
489,91	415,74
490,11	365,15
490,31	423,32
490,52	388,91
490,72	403,45
490,92	429,05
491,12	400,17
491,32	415,94
491,53	440,11
491,73	409,59
491,93	444,20
492,13	441,54
492,33	433,96
492,54	413,28
492,74	436,22
492,94	448,51
493,14	428,23
493,35	401,40
493,55	451,17
493,75	403,04
493,95	424,95
494,15	426,39
494,36	413,08
494,56	413,28
494,76	421,88
494,96	430,28
495,16	419,63
495,37	445,23
495,57	397,31
495,77	429,25
495,97	441,13
496,17	430,28
496,37	436,83
496,58	396,49
496,78	425,77
496,98	405,91
497,18	471,85
497,38	448,91
497,59	425,98
497,79	450,14
497,99	414,51
498,19	447,89
498,39	459,15
498,59	439,29
498,80	435,40
499,00	416,76
499,20	416,56
499,40	429,46
499,60	430,28
499,80	457,93
500,01	434,37
500,21	416,15
500,41	462,43
500,61	439,49
500,81	447,07
501,01	413,28
501,22	455,67
501,42	401,61
501,62	420,24
501,82	427,41
502,02	419,63
502,22	397,51
502,42	434,58
502,63	409,80
502,83	394,64
503,03	430,89
503,23	367,41
503,43	386,66
503,63	429,25
503,83	420,86
504,04	420,04
504,24	410,62
504,44	403,25
504,64	416,56
504,84	392,60
505,04	405,91
505,24	399,35
505,44	405,50
505,65	372,73
505,85	434,78
506,05	438,47
506,25	410,41
506,45	362,29
506,65	390,34
506,85	379,90
507,05	390,55
507,26	405,09
507,46	380,51
507,66	376,62
507,86	391,16
508,06	440,31
508,26	389,93
508,46	401,81
508,66	425,16
508,86	390,96
509,06	426,59
509,27	416,97
509,47	433,76
509,67	413,89
509,87	369,45
510,07	402,22
510,27	439,90
510,47	443,79
510,67	428,23
510,87	401,20
511,07	431,92
511,28	389,73
511,48	418,40
511,68	412,46
511,88	405,50
512,08	396,69
512,28	388,29
512,48	406,93
512,68	410,41
512,88	428,44
513,08	411,85
513,28	426,18
513,48	419,22
513,68	428,84
513,89	413,48
514,09	412,26
514,29	418,81
514,49	377,44
514,69	419,83
514,89	403,04
515,09	407,14
515,29	384,81
515,49	422,91
515,69	404,27
515,89	409,39
516,09	407,55
516,29	393,62
516,49	379,90
516,69	426,39
516,89	420,24
517,09	414,10
517,29	365,15
517,50	405,91
517,70	369,25
517,90	370,27
518,10	355,32
518,30	336,69
518,50	399,15
518,70	388,29
518,90	403,86
519,10	384,81
519,30	382,36
519,50	413,08
519,70	391,57
519,90	395,46
520,10	401,61
520,30	449,73
520,50	385,63
520,70	415,94
520,90	383,79
521,10	378,87
521,30	430,69
521,50	396,69
521,70	400,58
521,90	397,31
522,10	399,56
522,30	410,82
522,50	430,28
522,70	425,16
522,90	412,26
523,10	416,97
523,30	419,01
523,50	419,63
523,70	391,78
523,90	435,60
524,10	403,04
524,30	404,88
524,50	410,62
524,70	420,86
524,90	450,76
525,10	426,18
525,30	438,47
525,50	467,14
525,70	427,00
525,90	427,21
526,10	417,79
526,30	432,33
526,50	433,55
526,70	451,37
526,90	428,84
527,10	422,91
527,30	398,74
527,50	412,05
527,70	427,21
527,90	382,77
528,10	431,92
528,30	371,91
528,50	427,21
528,70	400,99
528,90	417,17
529,10	381,33
529,30	412,87
529,50	434,17
529,70	444,41
529,90	440,31
530,10	439,08
530,29	411,44
530,49	425,36
530,69	433,76
530,89	444,20
531,09	419,22
531,29	434,99
531,49	439,08
531,69	448,71
531,89	434,78
532,09	442,36
532,29	431,51
532,49	430,69
532,69	419,83
532,89	406,52
533,09	469,60
533,29	437,24
533,49	428,84
533,68	408,77
533,88	432,74
534,08	450,76
534,28	395,26
534,48	412,26
534,68	382,77
534,88	418,40
535,08	398,94
535,28	400,17
535,48	425,77
535,68	431,51
535,88	422,50
536,08	409,59
536,27	430,89
536,47	415,94
536,67	410,00
536,87	421,88
537,07	403,65
537,27	464,89
537,47	437,24
537,67	418,60
537,87	422,50
538,07	435,81
538,27	400,38
538,46	384,40
538,66	430,07
538,86	406,52
539,06	401,20
539,26	417,58
539,46	455,06
539,66	416,76
539,86	408,98
540,06	420,65
540,25	423,32
540,45	395,26
540,65	416,76
540,85	415,12
541,05	379,08
541,25	409,39
541,45	392,60
541,65	413,89
541,85	416,56
542,04	416,56
542,24	406,32
542,44	416,97
542,64	395,05
542,84	388,91
543,04	391,37
543,24	405,91
543,43	398,74
543,63	422,50
543,83	394,23
544,03	428,64
544,23	396,90
544,43	397,92
544,63	401,20
544,82	402,63
545,02	390,55
545,22	408,16
545,42	427,00
545,62	457,93
545,82	423,72
546,02	415,94
546,21	405,50
546,41	427,00
546,61	374,16
546,81	382,36
547,01	422,70
547,21	425,57
547,40	401,61
547,60	443,79
547,80	392,60
548,00	408,36
548,20	394,44
548,40	368,22
548,59	387,89
548,79	419,63
548,99	419,63
549,19	400,38
549,39	388,29
549,59	392,19
549,78	414,92
549,98	422,70
550,18	376,01
550,38	414,30
550,58	417,99
550,77	390,96
550,97	410,00
551,17	393,01
551,37	378,46
551,57	415,74
551,76	385,63
551,96	399,76
552,16	386,04
552,36	450,14
552,56	403,65
552,75	407,55
552,95	403,04
553,15	410,82
553,35	405,50
553,55	417,17
553,74	386,86
553,94	359,42
554,14	402,43
554,34	404,68
554,54	381,13
554,73	417,58
554,93	390,34
555,13	388,09
555,33	411,64
555,53	387,07
555,72	431,71
555,92	379,49
556,12	421,06
556,32	418,60
556,51	403,45
556,71	439,90
556,91	379,90
557,11	394,64
557,30	398,53
557,50	393,21
557,70	398,74
557,90	373,14
558,10	429,25
558,29	407,55
558,49	408,77
558,69	373,34
558,89	380,31
559,08	427,41
559,28	394,03
559,48	413,69
559,68	441,54
559,87	404,68
560,07	377,44
560,27	423,93
560,47	420,04
560,66	409,18
560,86	397,72
561,06	413,89
561,25	414,30
561,45	441,54
561,65	413,28
561,85	427,00
562,04	390,34
562,24	418,40
562,44	424,13
562,64	432,33
562,83	423,72
563,03	416,15
563,23	405,50
563,42	442,36
563,62	405,09
563,82	428,03
564,02	442,77
564,21	431,71
564,41	448,51
564,61	441,95
564,80	457,72
565,00	514,45
565,20	489,67
565,40	491,31
565,59	491,51
565,79	479,02
565,99	467,14
566,18	487,42
566,38	499,29
566,58	464,89
566,78	519,77
566,97	510,15
567,17	499,70
567,37	483,94
567,56	528,38
567,76	532,47
567,96	525,30
568,15	543,94
568,35	534,32
568,55	521,21
568,74	518,55
568,94	539,03
569,14	577,73
569,33	517,52
569,53	575,48
569,73	562,99
569,92	552,75
570,12	558,48
570,32	591,04
570,52	585,31
570,71	622,99
570,91	614,39
571,11	586,74
571,30	598,21
571,50	620,53
571,70	651,25
571,89	588,38
572,09	619,72
572,28	636,71
572,48	661,49
572,68	668,66
572,87	657,60
573,07	655,55
573,27	669,69
573,46	668,25
573,66	718,84
573,86	739,93
574,05	752,22
574,25	757,75
574,45	758,77
574,64	760,41
574,84	805,26
575,04	827,38
575,23	796,86
575,43	843,15
575,62	822,67
575,82	842,94
576,02	860,56
576,21	880,83
576,41	876,33
576,61	901,52
576,80	886,77
577,00	906,43
577,19	940,84
577,39	972,79
577,59	995,72
577,78	1021,53
577,98	1017,02
578,18	1017,84
578,37	1075,18
578,57	1095,46
578,76	1121,67
578,96	1109,18
579,16	1138,67
579,35	1123,72
579,55	1140,92
579,74	1234,72
579,94	1230,42
580,14	1277,93
580,33	1298,00
580,53	1327,29
580,72	1348,18
580,92	1397,12
581,12	1387,91
581,31	1427,64
581,51	1474,33
581,70	1502,80
581,90	1509,76
582,10	1564,44
582,29	1569,15
582,49	1623,22
582,68	1687,94
582,88	1675,44
583,07	1702,07
583,27	1779,07
583,47	1793,00
583,66	1774,77
583,86	1810,40
584,05	1855,25
584,25	1922,22
584,44	1945,57
584,64	2040,39
584,84	1985,92
585,03	2094,87
585,23	2081,15
585,42	2166,75
585,62	2216,11
585,81	2209,76
586,01	2277,96
586,20	2322,19
586,40	2351,07
586,60	2378,92
586,79	2463,71
586,99	2528,42
587,18	2541,32
587,38	2597,44
587,57	2646,39
587,77	2723,18
587,96	2738,54
588,16	2786,26
588,35	2884,97
588,55	2977,95
588,75	2948,05
588,94	3043,08
589,14	3115,57
589,33	3179,06
589,53	3231,49
589,72	3258,32
589,92	3357,24
590,11	3354,16
590,31	3467,42
590,50	3590,70
590,70	3570,43
590,89	3747,17
591,09	3700,88
591,28	3800,21
591,48	3887,04
591,67	3965,28
591,87	4014,84
592,06	4076,48
592,26	4133,21
592,45	4271,86
592,65	4330,23
592,84	4461,09
593,04	4478,91
593,23	4562,67
593,43	4708,89
593,62	4775,86
593,82	4802,90
594,01	4895,67
594,21	4963,46
594,40	4990,90
594,60	5095,96
594,79	5197,34
594,99	5190,99
595,18	5249,97
595,38	5357,28
595,57	5445,34
595,77	5622,70
595,96	5598,12
596,16	5638,47
596,35	5690,69
596,55	5691,71
596,74	5734,52
596,94	5732,88
597,13	5757,25
597,33	5812,34
597,52	5837,53
597,72	5860,47
597,91	5926,00
598,11	5928,87
598,30	5843,47
598,50	5943,00
598,69	5776,91
598,88	5779,37
599,08	5782,44
599,27	5773,22
599,47	5723,46
599,66	5723,05
599,86	5652,60
600,05	5569,66
600,25	5487,33
600,44	5400,70
600,64	5285,40
600,83	5221,91
601,02	5160,68
601,22	5040,26
601,41	4913,90
601,61	4852,66
601,80	4766,65
602,00	4702,34
602,19	4510,04
602,38	4404,77
602,58	4318,35
602,77	4188,30
602,97	4039,41
603,16	4006,85
603,36	3790,99
603,55	3731,60
603,74	3489,94
603,94	3494,04
604,13	3378,74
604,33	3268,97
604,52	3127,66
604,72	3035,50
604,91	2912,21
605,10	2808,38
605,30	2731,17
605,49	2650,28
605,69	2540,10
605,88	2450,60
606,07	2390,18
606,27	2234,13
606,46	2249,28
606,66	2101,22
606,85	2010,90
607,04	1925,50
607,24	1892,32
607,43	1835,80
607,63	1741,80
607,82	1698,99
608,01	1649,84
608,21	1553,38
608,40	1514,06
608,60	1463,68
608,79	1430,30
608,98	1350,84
609,18	1333,02
609,37	1282,64
609,57	1215,26
609,76	1171,64
609,95	1129,86
610,15	1116,76
610,34	1110,41
610,53	1036,89
610,73	1009,65
610,92	979,34
611,11	948,62
611,31	926,91
611,50	944,11
611,70	914,42
611,89	839,26
612,08	835,16
612,28	822,67
612,47	764,10
612,66	748,33
612,86	750,99
613,05	684,64
613,24	740,55
613,44	644,29
613,63	627,70
613,82	640,81
614,02	628,32
614,21	578,96
614,41	585,51
614,60	582,85
614,79	536,77
614,99	533,29
615,18	505,03
615,37	514,86
615,57	483,94
615,76	473,70
615,95	506,05
616,15	421,06
616,34	462,43
616,53	447,07
616,73	437,04
616,92	411,64
617,11	386,04
617,30	411,03
617,50	365,15
617,69	327,47
617,88	361,67
618,08	369,86
618,27	370,68
618,46	335,25
618,66	331,36
618,85	322,56
619,04	308,63
619,24	325,01
619,43	344,88
619,62	289,99
619,82	293,47
620,01	299,82
620,20	317,44
620,39	283,85
620,59	277,09
620,78	285,69
620,97	262,14
621,17	251,49
621,36	228,76
621,55	250,67
621,74	272,58
621,94	208,69
622,13	257,63
622,32	245,35
622,52	257,02
622,71	249,65
622,90	220,57
623,09	216,88
623,29	236,13
623,48	203,57
623,67	208,69
623,86	203,98
624,06	190,05
624,25	198,86
624,44	216,27
624,64	209,92
624,83	193,33
625,02	191,89
625,21	164,86
625,41	165,89
625,60	192,10
625,79	176,74
625,98	171,21
626,18	191,69
626,37	155,24
626,56	119,19
626,75	173,05
626,95	174,90
627,14	162,20
627,33	189,03
627,52	138,24
627,72	157,49
627,91	151,14
628,10	177,76
628,29	119,19
628,49	142,13
628,68	153,60
628,87	135,78
629,06	123,70
629,25	140,29
629,45	107,72
629,64	174,69
629,83	141,92
630,02	121,85
630,22	132,09
630,41	124,11
630,60	169,57
630,79	125,13
630,98	118,99
631,18	139,47
631,37	135,58
631,56	100,35
631,75	151,75
631,94	117,76
632,14	111,00
632,33	80,89
632,52	104,45
632,71	139,67
632,90	124,72
633,10	120,42
633,29	134,55
633,48	97,48
633,67	102,60
633,86	93,39
634,06	104,65
634,25	87,45
634,44	141,72
634,63	111,20
634,82	102,19
635,02	96,66
635,21	87,45
635,40	100,56
635,59	100,35
635,78	122,26
635,97	89,50
636,17	81,51
636,36	88,88
636,55	107,72
636,74	90,11
636,93	117,55
637,12	121,44
637,32	130,66
637,51	107,93
637,70	140,29
637,89	101,58
638,08	63,49
638,27	109,77
638,47	80,89
638,66	104,86
638,85	78,44
639,04	103,83
639,23	115,71
639,42	109,57
639,62	101,37
639,81	92,77
640,00	88,68
640,19	78,64
640,38	95,23
640,57	113,05
640,76	58,98
640,95	82,33
641,15	90,73
641,34	57,75
641,53	82,74
641,72	55,09
641,91	80,69
642,10	93,59
642,29	62,67
642,49	76,80
642,68	61,64
642,87	70,45
643,06	93,59
643,25	85,20
643,44	87,45
643,63	51,81
643,82	90,11
644,01	90,32
644,21	72,91
644,40	83,15
644,59	49,36
644,78	40,34
644,97	65,94
645,16	49,15
645,35	72,29
645,54	55,91
645,73	97,48
645,92	77,00
646,12	89,29
646,31	77,21
646,50	66,76
646,69	56,32
646,88	50,18
647,07	68,81
647,26	46,69
647,45	61,23
647,64	60,82
647,83	71,47
648,02	75,98
648,22	30,92
648,41	45,06
648,60	75,98
648,79	39,53
648,98	95,23
649,17	80,89
649,36	43,42
649,55	36,86
649,74	59,39
649,93	36,86
650,12	49,36
650,31	72,70
650,50	61,23
650,69	70,86
650,88	47,10
651,08	75,16
651,27	62,67
651,46	62,26
651,65	45,06
651,84	81,10
652,03	66,35
652,22	44,03
652,41	52,43
652,60	55,91
652,79	54,48
652,98	49,97
653,17	41,37
653,36	59,19
653,55	45,46
653,74	50,18
653,93	46,69
654,12	71,88
654,31	54,68
654,50	59,80
654,69	44,65
654,88	57,75
655,07	76,18
655,26	41,37
655,45	47,72
655,64	77,21
655,83	51,20
656,02	43,01
656,21	32,77
656,40	62,05
656,59	9,22
656,78	38,71
656,97	70,65
657,17	23,96
657,36	70,04
657,55	67,38
657,74	27,44
657,93	66,35
658,12	37,48
658,31	38,30
658,50	51,61
658,69	24,58
658,87	56,32
659,06	19,66
659,25	38,30
659,44	56,52
659,63	72,70
659,82	54,89
660,01	48,33
660,20	73,52
660,39	58,37
660,58	23,55
660,77	36,25
660,96	15,97
661,15	18,02
661,34	32,36
661,53	62,46
661,72	28,26
661,91	14,75
662,10	30,51
662,29	66,35
662,48	55,09
662,67	11,26
662,86	46,28
663,05	10,65
663,24	67,17
663,43	30,31
663,62	39,32
663,81	34,82
664,00	-8,19
664,19	24,99
664,38	47,51
664,57	41,37
664,76	48,13
664,94	62,67
665,13	26,83
665,32	-3,07
665,51	32,15
665,70	43,83
665,89	17,41
666,08	32,15
666,27	14,13
666,46	15,56
666,65	34,41
666,84	40,34
667,03	37,89
667,22	39,53
667,41	26,42
667,60	29,08
667,78	46,49
667,97	20,07
668,16	30,92
668,35	68,61
668,54	24,99
668,73	75,77
668,92	55,91
669,11	10,24
669,30	28,67
669,49	21,30
669,68	19,46
669,86	26,42
670,05	8,60
670,24	43,62
670,43	14,95
670,62	32,56
670,81	21,30
671,00	23,76
671,19	17,61
671,38	16,79
671,57	37,48
671,75	31,33
671,94	3,69
672,13	37,27
672,32	20,27
672,51	-2,87
672,70	44,65
672,89	22,73
673,08	11,67
673,26	30,11
673,45	39,73
673,64	6,76
673,83	36,04
674,02	23,14
674,21	13,93
674,40	3,89
674,59	1,43
674,77	42,19
674,96	17,82
675,15	54,89
675,34	34,61
675,53	48,54
675,72	36,86
675,91	-16,59
676,09	-14,54
676,28	38,91
676,47	-1,84
676,66	28,06
676,85	29,49
677,04	10,65
677,22	14,54
677,41	-2,05
677,60	6,55
677,79	18,23
677,98	22,12
678,17	-3,89
678,36	33,79
678,54	-14,54
678,73	18,02
678,92	46,28
679,11	-0,41
679,30	20,07
679,48	28,88
679,67	11,88
679,86	-8,81
680,05	-0,41
680,24	-21,09
680,43	3,28
680,61	-2,25
680,80	24,17
680,99	-14,95
681,18	4,92
681,37	10,85
681,55	23,55
681,74	20,89
681,93	15,15
682,12	29,29
682,31	25,39
682,49	2,46
682,68	-14,75
682,87	-0,41
683,06	-4,71
683,25	-18,43
683,43	-8,40
683,62	0,61
683,81	19,66
684,00	27,24
684,19	19,05
684,37	-16,59
684,56	-1,43
684,75	18,64
684,94	25,19
685,12	61,85
685,31	-34,41
685,50	5,53
685,69	5,73
685,88	12,29
686,06	-21,50
686,25	15,77
686,44	-16,79
686,63	-5,53
686,81	29,08
687,00	31,13
687,19	-5,73
687,38	0,82
687,56	0,82
687,75	3,69
687,94	1,64
688,13	-8,60
688,31	-5,73
688,50	-29,29
688,69	-26,42
688,88	-31,54
689,06	-34,41
689,25	7,37
689,44	9,42
689,63	-5,73
689,81	-3,28
690,00	1,02
690,19	-16,59
690,38	9,83
690,56	-10,24
690,75	3,28
690,94	5,53
691,13	-35,23
691,31	8,40
691,50	0,61
691,69	-1,02
691,87	4,92
692,06	16,38
692,25	-7,78
692,44	-20,27
692,62	-41,98
692,81	1,23
693,00	-15,56
693,18	-17,61
693,37	-28,67
693,56	-54,48
693,75	-25,39
693,93	4,71
694,12	10,65
694,31	-10,85
694,49	10,24
694,68	-10,85
694,87	4,71
695,05	-4,51
695,24	10,65
695,43	-15,36
695,62	-17,41
695,80	-30,92
695,99	-35,23
696,18	-7,78
696,36	-28,06
696,55	19,25
696,74	-38,91
696,92	-24,78
697,11	-12,29
697,30	-16,59
697,48	-23,76
697,67	1,23
697,86	-45,87
698,04	-9,83
698,23	-34,61
698,42	-4,92
698,60	-15,36
698,79	-25,60
698,98	-21,09
699,16	-37,07
699,35	-42,19
699,54	-22,94
699,72	-26,21
699,91	-25,19
700,10	-27,03
700,28	29,29
700,47	17,20
700,66	-6,35
700,84	-31,54
701,03	-37,27
701,21	-4,30
701,40	-31,54
701,59	-37,68
701,77	-6,55
701,96	-21,71
702,15	-5,53
702,33	-48,33
702,52	-46,28
702,71	22,12
702,89	0,61
703,08	-12,08
703,26	-39,53
703,45	-0,61
703,64	-5,32
703,82	-33,79
704,01	-23,96
704,20	-38,30
704,38	-20,89
704,57	-49,97
704,75	7,37
704,94	-17,00
705,13	-44,03
705,31	8,19
705,50	-21,91
705,68	-40,75
705,87	-0,82
706,06	-30,11
706,24	-31,95
706,43	-57,96
706,61	-31,74
706,80	-23,55
706,99	-9,63
707,17	-22,94
707,36	-24,99
707,54	-63,28
707,73	-17,61
707,92	9,83
708,10	-36,45
708,29	-56,32
708,47	-34,00
708,66	-37,07
708,84	-36,66
709,03	-57,14
709,22	-51,61
709,40	-10,44
709,59	-49,36
709,77	-16,79
709,96	-71,47
710,14	-47,72
710,33	-44,24
710,52	-41,98
710,70	-63,49
710,89	-35,43
711,07	-10,24
711,26	-45,46
711,44	-19,87
711,63	-27,44
711,81	-3,69
712,00	-41,37
712,19	-37,07
712,37	-34,00
712,56	-56,11
712,74	-41,98
712,93	-54,07
713,11	-31,33
713,30	-43,83
713,48	-46,69
713,67	-82,33
713,85	-45,46
714,04	-40,55
714,22	-59,80
714,41	-51,20
714,59	-20,27
714,78	-21,30
714,97	-56,93
715,15	-49,56
715,34	-15,36
715,52	-31,33
715,71	-7,37
715,89	-34,82
716,08	-44,85
716,26	-58,16
716,45	-43,42
716,63	-21,50
716,82	-59,60
717,00	-54,48
717,19	-52,63
717,37	10,04
717,56	-27,65
717,74	-47,51
717,93	-6,96
718,11	-22,94
718,30	-48,13
718,48	-4,10
718,67	-24,58
718,85	-15,36
719,04	-4,10
719,22	4,10
719,41	-36,66
719,59	-32,15
719,78	-14,54
719,96	-30,72
720,15	-22,53
720,33	-32,77
720,52	-14,13
720,70	-26,62
720,88	-68,40
721,07	-15,77
721,25	-30,92
721,44	-42,19
721,62	-7,99
721,81	-34,61
721,99	-36,04
722,18	-40,75
722,36	-14,75
722,55	-38,09
722,73	-61,23
722,92	-1,43
723,10	-54,48
723,28	-6,96
723,47	-21,30
723,65	-40,14
723,84	-15,97
724,02	-24,58
724,21	-44,44
724,39	-23,96
724,58	-24,17
724,76	-40,55
724,94	-23,96
725,13	-19,05
725,31	-29,49
725,50	-23,55
725,68	-64,10
725,87	-23,96
726,05	-1,43
726,23	-30,31
726,42	-1,64
726,60	-39,94
726,79	-4,51
726,97	-46,69
727,16	-13,52
727,34	-34,20
727,52	-2,25
727,71	-6,96
727,89	-27,65
728,08	-25,80
728,26	-21,91
728,44	-0,41
728,63	-41,57
728,81	-32,36
729,00	-27,03
729,18	-11,47
729,36	-67,17
729,55	-28,67
729,73	7,37
729,92	-15,15
730,10	-40,75
730,28	-41,98
730,47	-29,90
730,65	-46,28
730,84	-39,73
731,02	-54,48
731,20	-11,06
731,39	-39,53
731,57	-49,97
731,75	-32,56
731,94	-9,83
732,12	-51,20
732,31	-15,77
732,49	2,05
732,67	-54,89
732,86	-22,94
733,04	-22,32
733,22	-43,62
733,41	-64,51
733,59	-13,72
733,78	-48,95
733,96	15,36
734,14	-22,12
734,33	-37,48
734,51	-30,31
734,69	-42,39
734,88	-25,80
735,06	-36,66
735,24	8,81
735,43	-17,20
735,61	-46,08
735,79	-56,11
735,98	-46,90
736,16	-1,64
736,34	-19,46
736,53	-41,98
736,71	-47,51
736,89	-59,19
737,08	-16,18
737,26	-45,67
737,44	-5,32
737,63	-33,79
737,81	-56,73
737,99	-57,96
738,18	-32,56
738,36	-26,01
738,54	-30,72
738,73	-14,34
738,91	-74,34
739,09	-20,07
739,28	-29,08
739,46	-47,31
739,64	14,95
739,82	-10,85
740,01	-26,01
740,19	-11,67
740,37	-62,05
740,56	-37,68
740,74	-17,82
740,92	-37,89
741,11	-49,36
741,29	4,51
741,47	4,92
741,65	-26,42
741,84	-9,42
742,02	-57,14
742,20	-54,07
742,39	-72,50
742,57	-32,15
742,75	-8,81
742,93	-31,33
743,12	-63,49
743,30	-35,02
743,48	-1,64
743,67	-46,49
743,85	-36,86
744,03	-40,75
744,21	-26,21
744,40	-18,43
744,58	-14,54
744,76	-57,75
744,94	-24,17
745,13	-53,25
745,31	-27,85
745,49	-35,23
745,67	-36,04
745,86	-13,11
746,04	-23,96
746,22	-40,96
746,40	-49,15
746,59	-42,60
746,77	-56,11
746,95	-13,11
747,13	-59,60
747,32	-44,65
747,50	-28,88
747,68	-40,55
747,86	-31,74
748,05	-26,62
748,23	-21,09
748,41	-16,59
748,59	-63,69
748,77	-28,06
748,96	-36,86
749,14	-48,74
749,32	-54,68
749,50	-39,94
749,69	-36,04
749,87	15,15
750,05	-21,09
750,23	-62,67
750,41	-24,99
750,60	-20,48
750,78	-24,17
750,96	-42,19
751,14	-35,43
751,32	-32,36
751,51	-56,93
751,69	-56,93
751,87	-38,50
752,05	-33,18
752,23	-23,55
752,42	-40,96
752,60	-38,50
752,78	-30,51
752,96	-36,86
753,14	-45,46
753,33	-47,10
753,51	-52,84
753,69	-28,06
753,87	-10,24
754,05	-30,31
754,23	-35,63
754,42	-50,18
754,60	-14,75
754,78	-2,46
754,96	-2,46
755,14	-46,49
755,32	-54,48
755,51	-26,42
755,69	-24,17
755,87	-51,20
756,05	-55,70
756,23	-5,73
756,41	-18,23
756,60	-42,19
756,78	-5,12
756,96	-49,77
757,14	-21,71
757,32	-53,04
757,50	-31,74
757,68	-25,80
757,87	-35,43
758,05	-27,24
758,23	-55,70
758,41	-59,60
758,59	-28,47
758,77	-22,12
758,95	-40,34
759,14	-15,97
759,32	-34,00
759,50	-19,66
759,68	28,88
759,86	-6,96
760,04	14,13
760,22	7,58
760,40	-0,20
760,59	-6,76
760,77	21,09
760,95	22,94
761,13	23,35
761,31	19,66
761,49	25,80
761,67	18,02
761,85	-6,14
762,03	22,73
762,22	-3,48
762,40	34,20
762,58	-5,53
762,76	22,12
762,94	-3,89
763,12	28,06
763,30	36,45
763,48	-2,46
763,66	21,91
763,84	28,47
764,02	25,60
764,21	13,72
764,39	2,87
764,57	42,19
764,75	6,55
764,93	5,32
765,11	0,41
765,29	-15,97
765,47	-25,39
765,65	-5,12
765,83	13,52
766,01	4,10
766,19	19,05
766,37	-17,82
766,56	-26,83
766,74	-26,83
766,92	-38,71
767,10	-9,42
767,28	-64,72
767,46	-26,62
767,64	-69,84
767,82	-51,81
768,00	-29,70
768,18	-57,96
768,36	-25,39
768,54	-11,47
768,72	-46,28
768,90	-42,60
769,08	-49,56
769,26	-82,12
769,44	-26,21
769,62	-38,30
769,80	-35,84
769,98	-30,31
770,16	-45,26
770,34	-23,76
770,52	-34,00
770,71	-54,68
770,89	-10,04
771,07	-75,57
771,25	-44,24
771,43	-19,66
771,61	-20,48
771,79	-38,71
771,97	-61,44
772,15	-19,66
772,33	-68,81
772,51	-63,28
772,69	-20,27
772,87	-28,47
773,05	-67,99
773,23	-43,83
773,41	-62,67
773,59	-33,38
773,77	-35,63
773,95	-33,59
774,13	-61,23
774,31	-35,23
774,49	-16,18
774,67	-15,56
774,85	-40,55
775,03	-50,18
775,21	-56,73
775,39	-41,37
775,57	-15,15
775,75	-35,84
775,93	-34,00
776,10	-65,94
776,28	-63,08
776,46	-31,54
776,64	-54,48
776,82	-30,31
777,00	197,22
777,18	-40,55
777,36	-4,71
777,54	-29,08
777,72	-34,61
777,90	-28,47
778,08	-31,13
778,26	-25,39
778,44	-31,13
778,62	-14,34
778,80	-26,01
778,98	21,71
779,16	-25,19
779,34	-65,74
779,52	-29,70
779,70	-14,13
779,88	-41,37
780,05	-36,66
780,23	-16,38
780,41	-32,56
780,59	-38,09
780,77	-35,23
780,95	-21,30
781,13	-43,42
781,31	-72,09
781,49	-44,44
781,67	-49,36
781,85	-23,76
782,03	-40,14
782,21	-33,59
782,39	-36,66
782,56	-12,08
782,74	-51,40
782,92	-75,77
783,10	-13,52
783,28	-14,95
783,46	-49,77
783,64	-38,71
783,82	-2,25
784,00	-8,40
784,18	-4,30
784,35	-15,56
784,53	-10,65
784,71	-27,65
784,89	-13,11
785,07	-48,95
785,25	-39,73
785,43	-10,44
785,61	-63,08
785,79	-52,84
785,96	-33,18
786,14	6,35
786,32	-44,65
786,50	-12,70
786,68	-28,47
786,86	-35,84
787,04	-44,03
787,22	-12,49
787,39	-7,99
787,57	-41,98
787,75	-22,73
787,93	-12,90
788,11	-8,81
788,29	-31,74
788,47	-49,36
788,65	-45,46
788,82	-43,21
789,00	-9,83
789,18	-14,34
789,36	-8,19
789,54	-26,62
789,72	-20,07
789,89	-26,83
790,07	-21,50
790,25	-53,66
790,43	-8,81
790,61	-48,13
790,79	-5,94
790,96	-39,12
791,14	10,85
791,32	-8,60
791,50	-42,39
791,68	-27,65
791,86	-26,83
792,03	6,14
792,21	-49,15
792,39	-30,92
792,57	-20,07
792,75	-9,01
792,93	-24,37
793,10	-27,24
793,28	-1,84
793,46	19,66
793,64	-18,43
793,82	-21,50
793,99	-16,79
794,17	-34,41
794,35	-19,87
794,53	-20,48
794,71	-35,43
794,88	-56,11
795,06	-19,46
795,24	-7,17
795,42	-39,32
795,60	-29,29
795,77	-16,79
795,95	-19,05
796,13	3,28
796,31	-7,78
796,49	-11,47
796,66	-16,59
796,84	-36,86
797,02	-11,26
797,20	10,24
797,37	-27,03
797,55	-53,04
797,73	-8,60
797,91	-25,80
798,08	-3,48
798,26	-18,64
798,44	-33,18
798,62	-15,36
798,80	10,65
798,97	-39,73
799,15	-7,17
799,33	-37,68
799,51	-5,12
799,68	-14,54
799,86	-18,84
800,04	-40,55
800,22	-20,07
800,39	-12,70
800,57	-10,24
800,75	-33,38
800,93	-13,93
801,10	-30,72
801,28	-21,71
801,46	-58,78
801,63	-24,99
801,81	-18,02
801,99	-32,15
802,17	-11,26
802,34	-26,42
802,52	-25,80
802,70	-20,07
802,88	-4,51
803,05	-36,45
803,23	-21,50
803,41	-29,29
803,58	-25,60
803,76	10,85
803,94	-28,67
804,12	-7,78
804,29	0,00
804,47	-1,64
804,65	-31,54
804,82	-17,41
805,00	2,87
805,18	5,32
805,35	8,19
805,53	16,79
805,71	-10,85
805,89	-13,31
806,06	-11,67
806,24	-3,89
806,42	-6,14
806,59	-36,66
806,77	-19,87
806,95	-39,73
807,12	-11,47
807,30	-31,13
807,48	-17,61
807,65	-31,74
807,83	10,65
808,01	1,02
808,18	12,70
808,36	-15,36
808,54	-18,84
808,71	17,61
808,89	16,79
809,07	-5,94
809,24	-17,00
809,42	-14,54
809,60	-28,47
809,77	-31,74
809,95	-26,21
810,13	-45,67
810,30	34,61
810,48	3,48
810,66	-29,08
810,83	9,83
811,01	-27,65
811,18	-12,90
811,36	-18,02
811,54	-15,15
811,71	-19,25
811,89	-16,59
812,07	-28,06
812,24	3,89
812,42	19,87
812,59	-5,94
812,77	11,06
812,95	4,30
813,12	-17,00
813,30	8,81
813,48	-5,73
813,65	7,78
813,83	26,01
814,00	16,59
814,18	10,24
814,36	-6,76
814,53	-26,01
814,71	27,85
814,88	-16,79
815,06	-17,00
815,24	13,72
815,41	6,14
815,59	3,89
815,76	-9,22
815,94	14,13
816,12	-14,75
816,29	39,73
816,47	24,78
816,64	4,10
816,82	26,62
817,00	11,67
817,17	9,01
817,35	-7,37
817,52	-12,08
817,70	10,44
817,87	21,09
818,05	2,46
818,23	-26,83
818,40	-23,35
818,58	-7,78
818,75	7,99
818,93	12,08
819,10	-2,66
819,28	18,43
819,46	11,88
819,63	-20,07
819,81	20,89
819,98	8,60
820,16	-19,25
820,33	11,26
820,51	4,92
820,68	-22,12
820,86	-4,30
821,03	18,02
821,21	-20,48
821,39	21,09
821,56	5,32
821,74	17,82
821,91	-7,78
822,09	20,48
822,26	-21,50
822,44	10,24
822,61	-16,59
822,79	-0,41
822,96	10,44
823,14	-18,84
823,31	17,00
823,49	-7,17
823,66	24,17
823,84	12,70
824,01	10,24
824,19	0,00
824,36	21,50
824,54	-25,19
824,71	14,95
824,89	-38,09
825,06	-5,12
825,24	-2,05
825,41	28,67
825,59	24,17
825,76	12,90
825,94	-24,37
826,11	-34,20
826,29	-2,25
826,46	-4,71
826,64	-19,25
826,81	19,87
826,99	28,67
827,16	-1,64
827,34	-12,90
827,51	5,32
827,69	1,64
827,86	-9,01
828,04	8,60
828,21	8,60
828,39	34,82
828,56	30,51
828,74	-28,06
828,91	7,99
829,09	21,50
829,26	-17,00
829,43	6,96
829,61	25,39
829,78	-11,47
829,96	6,76
830,13	6,14
830,31	3,69
830,48	27,85
830,66	-6,35
830,83	6,35
831,01	7,99
831,18	25,39
831,35	6,55
831,53	3,89
831,70	12,70
831,88	34,41
832,05	6,76
832,23	-16,18
832,40	31,13
832,57	-5,53
832,75	26,42
832,92	-5,73
833,10	40,96
833,27	-6,35
833,45	-12,08
833,62	4,92
833,79	1,02
833,97	-32,36
834,14	20,27
834,32	41,98
834,49	19,87
834,66	16,59
834,84	21,30
835,01	-0,20
835,19	-19,46
835,36	-6,96
835,53	8,60
835,71	18,84
835,88	30,31
836,06	2,46
836,23	6,76
836,40	-4,30
836,58	17,20
836,75	23,76
836,93	1,64
837,10	-3,28
837,27	5,32
837,45	-23,76
837,62	-0,61
837,79	6,55
837,97	16,38
838,14	-26,42
838,32	18,02
838,49	16,79
838,66	8,60
838,84	39,94
839,01	-17,82
839,18	0,82
839,36	8,40
839,53	18,43
839,70	-15,77
839,88	20,07
840,05	-3,89
840,23	14,13
840,40	-10,24
840,57	-11,88
840,75	2,25
840,92	3,28
841,09	7,58
841,27	-1,23
841,44	-6,35
841,61	18,43
841,79	5,94
841,96	19,25
842,13	18,84
842,31	17,82
842,48	4,92
842,65	0,20
842,83	18,43
843,00	15,15
843,17	16,79
843,35	-20,89
843,52	22,73
843,69	20,89
843,86	14,13
844,04	0,00
844,21	10,44
844,38	12,90
844,56	19,05
844,73	-14,54
844,90	33,18
845,08	26,01
845,25	7,78
845,42	-5,73
845,60	-11,47
845,77	28,06
845,94	11,88
846,11	-2,46
846,29	4,92
846,46	3,07
846,63	29,08
846,81	12,29
846,98	35,63
847,15	0,41
847,32	-3,69
847,50	7,37
847,67	5,12
847,84	0,41
848,01	21,50
848,19	5,12
848,36	14,13
848,53	-19,25
848,71	-12,49
848,88	9,83
849,05	17,41
849,22	22,12
849,40	22,94
849,57	-1,43
849,74	10,44
849,91	20,27
850,09	7,37
850,26	-16,38
850,43	9,01
850,60	0,41
850,78	-2,46
850,95	16,79
851,12	3,48
851,29	25,80
851,47	-1,43
851,64	-6,14
851,81	-17,82
851,98	19,25
852,15	34,00
852,33	14,13
852,50	27,85
852,67	23,14
852,84	-1,43
853,02	23,76
853,19	2,87
853,36	-6,55
853,53	29,49
853,70	35,02
853,88	19,05
854,05	12,08
854,22	13,93
854,39	16,59
854,56	30,51
854,74	40,55
854,91	27,03
855,08	11,88
855,25	2,46
855,42	-14,95
855,60	10,85
855,77	-3,48
855,94	5,94
856,11	13,52
856,28	16,38
856,46	1,43
856,63	20,68
856,80	-7,17
856,97	10,65
857,14	-1,23
857,31	14,75
857,49	19,66
857,66	22,12
857,83	-0,61
858,00	27,85
858,17	12,08
858,34	19,87
858,52	44,85
858,69	29,29
858,86	23,55
859,03	12,90
859,20	18,84
859,37	11,06
859,55	23,35
859,72	5,32
859,89	-13,11
860,06	14,13
860,23	15,36
860,40	0,82
860,57	22,12
860,75	3,28
860,92	23,35
861,09	-6,96
861,26	-9,83
861,43	14,13
861,60	13,31
861,77	37,07
861,95	0,41
862,12	21,09
862,29	3,69
862,46	45,67
862,63	20,48
862,80	10,04
862,97	32,77
863,14	36,45
863,31	25,60
863,49	0,82
863,66	14,34
863,83	3,48
864,00	11,67
864,17	21,50
864,34	32,97
864,51	23,35
864,68	31,95
864,85	32,15
865,02	23,14
865,20	40,34
865,37	-3,69
865,54	-38,71
865,71	-12,70
865,88	50,79
866,05	11,67
866,22	35,63
866,39	45,26
866,56	0,20
866,73	26,01
866,90	-19,66
867,07	7,99
867,25	23,55
867,42	3,69
867,59	22,12
867,76	-0,61
867,93	27,03
868,10	1,43
868,27	32,97
868,44	48,74
868,61	1,02
868,78	13,31
868,95	1,02
869,12	3,07
869,29	21,09
869,46	28,26
869,63	13,31
869,80	-9,01
869,97	-0,61
870,14	-22,53
870,32	39,73
870,49	12,49
870,66	12,70
870,83	2,05
871,00	17,41
871,17	16,79
871,34	12,70
871,51	21,91
871,68	-3,28
871,85	7,37
872,02	27,65
872,19	47,72
872,36	45,87
872,53	37,89
872,70	28,26
872,87	36,86
873,04	37,89
873,21	16,38
873,38	27,85
873,55	27,85
873,72	7,58
873,89	45,87
874,06	-4,10
874,23	29,08
874,40	44,24
874,57	23,96
874,74	20,89
874,91	-11,47
875,08	6,76
875,25	11,26
875,42	9,42
875,59	30,31
875,76	44,24
875,93	34,00
876,10	-3,89
876,27	14,95
876,44	24,99
876,61	14,54
876,78	30,72
876,95	-19,25
877,12	39,94
877,29	29,29
877,46	46,28
877,62	42,19
877,79	22,12
877,96	8,19
878,13	23,55
878,30	45,87
878,47	4,92
878,64	10,85
878,81	25,39
878,98	16,18
879,15	13,52
879,32	26,01
879,49	10,65
879,66	18,84
879,83	25,60
880,00	32,15
880,17	34,61
880,34	13,52
880,51	23,96
880,67	41,16
880,84	1,84
881,01	-13,31
881,18	16,79
881,35	14,54
881,52	19,87
881,69	13,93
881,86	35,23
882,03	17,82
882,20	21,30
882,37	10,44
882,54	26,42
882,70	6,76
882,87	19,25
883,04	46,08
883,21	8,81
883,38	28,06
883,55	35,02
883,72	30,92
883,89	-18,84
884,06	5,73
884,23	31,13
884,39	-27,24
884,56	15,15
884,73	45,06
884,90	39,12
885,07	19,05
885,24	29,90
885,41	13,93
885,58	57,55
885,74	12,49
885,91	31,54
886,08	42,60
886,25	2,66
886,42	14,95
886,59	18,02
886,76	-10,85
886,93	18,64
887,09	18,43
887,26	10,65
887,43	30,31
887,60	32,97
887,77	34,20
887,94	27,44
888,10	43,42
888,27	29,29
888,44	40,14
888,61	21,50
888,78	11,47
888,95	6,35
889,12	56,93
889,28	49,77
889,45	19,46
889,62	39,12
889,79	38,71
889,96	57,55
890,13	30,51
890,29	-0,41
890,46	2,66
890,63	43,42
890,80	17,00
890,97	11,26
891,13	-6,14
891,30	7,17
891,47	51,81
891,64	50,38
891,81	21,91
891,98	34,82
892,14	30,92
892,31	50,99
892,48	57,34
892,65	2,46
892,82	7,17
892,98	34,41
893,15	37,89
893,32	31,95
>>>>>End Processed Spectral Data<<<<<
