SpectraSuite Datei
++++++++++++++++++++++++++++++++++++
Datum: Tue Dec 10 15:14:02 CET 2019
Benutzer: Lichtquellen1
Dark-Spektrum vorhanden: Ja
Referenz-Spektrum vorhanden: Nein
Zahl der probierten Teilspektren: 1
Spektrometer: USB4F05832
Integrationszeit (usec): 100000 (USB4F05832)
Spektren Durchschnitt berechnet: 10 (USB4F05832)
Boxcar Glättung: 0 (USB4F05832)
Dunkelstromkorrektur: Nein (USB4F05832)
Puls/Lampe aktiviert: Nein (USB4F05832)
Correct for Detector Non-linearity: Nein (USB4F05832)
Streulichtkorrektur: Nein (USB4F05832)
Anzahl Pixel in verarbeitetem Spektrum: 3648
>>>>>Begin Processed Spectral Data<<<<<
177,54	31,74
177,75	31,74
177,97	31,74
178,19	2,66
178,41	49,97
178,63	48,13
178,85	9,83
179,07	22,94
179,29	0,61
179,51	27,03
179,73	67,17
179,95	17,82
180,17	39,32
180,39	28,47
180,61	59,80
180,83	38,09
181,05	61,44
181,27	33,18
181,49	46,08
181,71	26,62
181,92	49,36
182,14	64,51
182,36	35,84
182,58	26,83
182,80	20,27
183,02	87,24
183,24	50,58
183,46	12,70
183,68	42,80
183,90	61,64
184,12	73,11
184,34	51,40
184,56	40,14
184,78	62,67
185,00	41,78
185,21	24,58
185,43	42,19
185,65	54,27
185,87	54,89
186,09	69,63
186,31	37,68
186,53	53,04
186,75	44,03
186,97	31,13
187,19	42,80
187,41	22,94
187,63	48,74
187,84	55,30
188,06	43,83
188,28	22,73
188,50	54,89
188,72	49,97
188,94	36,25
189,16	51,20
189,38	50,58
189,60	42,39
189,82	23,55
190,03	25,39
190,25	42,19
190,47	38,50
190,69	7,37
190,91	44,85
191,13	52,84
191,35	64,31
191,57	52,22
191,79	23,55
192,01	14,54
192,22	66,35
192,44	41,16
192,66	38,09
192,88	53,25
193,10	49,77
193,32	48,13
193,54	47,92
193,76	38,91
193,98	24,58
194,19	30,92
194,41	71,88
194,63	34,20
194,85	21,30
195,07	62,67
195,29	41,57
195,51	54,68
195,73	15,56
195,94	47,10
196,16	40,96
196,38	31,95
196,60	12,08
196,82	35,43
197,04	56,32
197,26	38,09
197,48	29,70
197,69	62,46
197,91	36,04
198,13	32,97
198,35	35,63
198,57	37,27
198,79	61,85
199,01	31,54
199,22	40,34
199,44	46,90
199,66	12,49
199,88	18,23
200,10	24,37
200,32	43,42
200,54	31,54
200,75	30,92
200,97	57,96
201,19	41,98
201,41	36,04
201,63	15,97
201,85	46,90
202,06	25,80
202,28	39,73
202,50	8,19
202,72	26,01
202,94	31,95
203,16	35,63
203,38	60,01
203,59	42,39
203,81	60,42
204,03	32,15
204,25	34,41
204,47	58,98
204,69	67,58
204,90	25,60
205,12	10,24
205,34	29,90
205,56	46,49
205,78	27,44
206,00	38,50
206,21	42,39
206,43	63,28
206,65	43,01
206,87	51,81
207,09	50,18
207,30	55,70
207,52	30,92
207,74	35,23
207,96	23,76
208,18	46,90
208,40	25,60
208,61	58,37
208,83	63,69
209,05	65,13
209,27	35,43
209,49	38,71
209,70	48,54
209,92	40,34
210,14	55,91
210,36	41,98
210,58	58,37
210,79	60,21
211,01	35,84
211,23	75,16
211,45	38,71
211,67	19,46
211,88	58,37
212,10	80,08
212,32	26,62
212,54	13,31
212,76	49,36
212,97	64,10
213,19	45,46
213,41	48,54
213,63	52,63
213,85	15,97
214,06	32,56
214,28	48,74
214,50	46,08
214,72	20,07
214,94	19,46
215,15	62,87
215,37	65,33
215,59	53,86
215,81	40,14
216,02	24,78
216,24	25,19
216,46	41,57
216,68	41,16
216,90	55,50
217,11	48,54
217,33	38,09
217,55	39,32
217,77	60,21
217,98	19,25
218,20	57,75
218,42	46,90
218,64	44,44
218,85	60,62
219,07	25,60
219,29	59,39
219,51	54,27
219,73	38,09
219,94	31,54
220,16	71,06
220,38	39,94
220,60	13,11
220,81	35,43
221,03	27,65
221,25	45,26
221,47	48,13
221,68	49,56
221,90	43,62
222,12	41,78
222,34	75,57
222,55	43,01
222,77	32,15
222,99	62,87
223,21	8,19
223,42	28,88
223,64	32,77
223,86	26,42
224,08	41,98
224,29	75,98
224,51	31,74
224,73	43,21
224,94	40,55
225,16	46,90
225,38	30,92
225,60	64,10
225,81	40,55
226,03	29,90
226,25	18,64
226,47	11,88
226,68	13,31
226,90	29,29
227,12	48,33
227,33	27,65
227,55	51,40
227,77	37,89
227,99	21,91
228,20	66,15
228,42	31,95
228,64	21,09
228,86	53,45
229,07	49,97
229,29	33,59
229,51	28,47
229,72	26,42
229,94	34,82
230,16	60,82
230,38	41,57
230,59	59,39
230,81	-0,00
231,03	36,45
231,24	26,21
231,46	59,39
231,68	44,65
231,89	10,65
232,11	63,49
232,33	55,09
232,55	55,70
232,76	54,27
232,98	53,86
233,20	34,61
233,41	64,92
233,63	41,57
233,85	63,90
234,06	10,04
234,28	65,13
234,50	33,79
234,71	9,22
234,93	48,33
235,15	28,26
235,37	8,40
235,58	10,44
235,80	32,97
236,02	57,55
236,23	20,48
236,45	46,28
236,67	21,50
236,88	9,83
237,10	31,13
237,32	38,09
237,53	65,33
237,75	19,87
237,97	27,85
238,18	35,02
238,40	49,97
238,62	60,62
238,83	56,11
239,05	33,18
239,27	39,53
239,48	58,16
239,70	26,21
239,92	24,37
240,13	56,73
240,35	57,96
240,57	37,07
240,78	23,76
241,00	59,39
241,22	51,81
241,43	61,23
241,65	38,71
241,87	50,79
242,08	64,72
242,30	27,65
242,52	55,70
242,73	81,71
242,95	28,88
243,16	39,73
243,38	35,84
243,60	52,84
243,81	80,89
244,03	38,50
244,25	47,51
244,46	37,89
244,68	35,02
244,90	48,13
245,11	48,33
245,33	51,81
245,55	48,13
245,76	64,92
245,98	41,98
246,19	59,80
246,41	44,03
246,63	68,40
246,84	29,29
247,06	49,36
247,28	37,48
247,49	46,69
247,71	48,13
247,92	43,62
248,14	40,14
248,36	71,06
248,57	56,93
248,79	49,36
249,01	68,61
249,22	27,85
249,44	42,60
249,65	44,65
249,87	54,48
250,09	29,90
250,30	37,68
250,52	28,47
250,73	68,40
250,95	50,58
251,17	36,04
251,38	35,02
251,60	49,77
251,81	85,61
252,03	52,43
252,25	64,31
252,46	35,84
252,68	46,49
252,89	16,79
253,11	45,67
253,33	73,11
253,54	47,10
253,76	49,15
253,97	43,62
254,19	50,79
254,41	34,41
254,62	53,25
254,84	27,65
255,05	58,98
255,27	36,86
255,49	47,10
255,70	36,66
255,92	36,25
256,13	36,45
256,35	41,16
256,56	54,07
256,78	63,28
257,00	48,13
257,21	50,58
257,43	85,20
257,64	48,33
257,86	76,18
258,08	40,14
258,29	40,75
258,51	47,31
258,72	56,52
258,94	4,51
259,15	43,01
259,37	36,25
259,59	42,39
259,80	61,03
260,02	26,62
260,23	15,97
260,45	45,87
260,66	23,14
260,88	15,56
261,09	39,32
261,31	43,21
261,53	65,54
261,74	55,70
261,96	49,15
262,17	30,92
262,39	65,13
262,60	55,70
262,82	62,46
263,03	45,46
263,25	74,14
263,46	48,33
263,68	58,57
263,90	59,80
264,11	26,21
264,33	42,39
264,54	73,32
264,76	13,31
264,97	49,36
265,19	14,34
265,40	37,89
265,62	26,62
265,83	28,88
266,05	11,47
266,26	48,95
266,48	59,39
266,70	71,27
266,91	67,58
267,13	49,15
267,34	71,88
267,56	57,55
267,77	61,23
267,99	39,12
268,20	27,65
268,42	32,97
268,63	64,72
268,85	71,06
269,06	50,18
269,28	29,70
269,49	28,88
269,71	72,50
269,92	24,99
270,14	42,39
270,35	43,01
270,57	32,77
270,78	45,46
271,00	56,73
271,21	62,46
271,43	46,90
271,64	4,92
271,86	84,79
272,07	44,85
272,29	42,60
272,50	35,63
272,72	55,70
272,93	29,08
273,15	71,27
273,36	26,62
273,58	24,78
273,79	41,57
274,01	61,23
274,22	28,88
274,44	51,40
274,65	30,31
274,87	45,26
275,08	30,72
275,30	48,33
275,51	64,72
275,73	62,26
275,94	36,86
276,16	42,19
276,37	65,33
276,59	74,55
276,80	48,54
277,02	70,86
277,23	24,17
277,45	30,92
277,66	27,03
277,88	23,55
278,09	55,09
278,30	20,27
278,52	35,84
278,73	84,17
278,95	29,29
279,16	24,58
279,38	37,48
279,59	75,57
279,81	39,32
280,02	77,62
280,24	44,85
280,45	35,84
280,67	60,62
280,88	60,62
281,09	39,53
281,31	41,16
281,52	18,02
281,74	72,29
281,95	81,92
282,17	45,67
282,38	78,03
282,60	33,38
282,81	48,74
283,02	36,04
283,24	12,49
283,45	50,38
283,67	41,78
283,88	41,16
284,10	40,55
284,31	47,10
284,53	17,20
284,74	37,68
284,95	48,95
285,17	39,94
285,38	13,72
285,60	45,46
285,81	47,92
286,03	17,00
286,24	31,74
286,45	61,64
286,67	75,77
286,88	53,66
287,10	17,41
287,31	40,75
287,53	45,67
287,74	19,25
287,95	35,43
288,17	45,06
288,38	48,54
288,60	48,13
288,81	62,05
289,02	11,26
289,24	19,46
289,45	48,33
289,67	29,70
289,88	28,67
290,10	57,14
290,31	28,26
290,52	47,72
290,74	24,78
290,95	29,49
291,17	66,56
291,38	31,54
291,59	41,78
291,81	55,30
292,02	49,77
292,24	53,86
292,45	18,84
292,66	46,28
292,88	46,69
293,09	56,73
293,31	49,36
293,52	63,90
293,73	47,72
293,95	57,55
294,16	79,67
294,37	33,59
294,59	51,40
294,80	55,30
295,02	27,24
295,23	44,24
295,44	29,49
295,66	24,99
295,87	31,33
296,09	66,97
296,30	82,74
296,51	45,26
296,73	15,36
296,94	46,28
297,15	61,64
297,37	38,71
297,58	39,12
297,79	65,33
298,01	49,36
298,22	20,07
298,44	45,67
298,65	74,14
298,86	-11,26
299,08	44,85
299,29	67,79
299,50	38,50
299,72	36,04
299,93	29,08
300,14	42,60
300,36	19,87
300,57	63,28
300,79	53,45
301,00	9,42
301,21	27,85
301,43	38,50
301,64	21,30
301,85	42,60
302,07	52,84
302,28	46,28
302,49	50,79
302,71	33,18
302,92	57,14
303,13	28,67
303,35	41,78
303,56	89,29
303,77	51,20
303,99	32,97
304,20	56,32
304,41	33,38
304,63	57,96
304,84	49,56
305,05	70,25
305,27	50,79
305,48	29,70
305,69	28,67
305,91	27,85
306,12	19,46
306,33	35,23
306,55	60,01
306,76	23,96
306,97	23,55
307,19	53,04
307,40	51,81
307,61	74,96
307,82	45,87
308,04	57,14
308,25	38,91
308,46	25,80
308,68	79,26
308,89	45,26
309,10	30,51
309,32	6,35
309,53	45,06
309,74	44,24
309,96	27,65
310,17	9,83
310,38	16,18
310,59	32,77
310,81	17,82
311,02	43,01
311,23	55,50
311,45	45,87
311,66	48,33
311,87	0,61
312,09	35,02
312,30	36,66
312,51	33,79
312,72	37,27
312,94	45,46
313,15	30,51
313,36	25,19
313,58	27,65
313,79	70,04
314,00	61,44
314,21	48,13
314,43	53,25
314,64	47,31
314,85	19,05
315,06	32,77
315,28	54,27
315,49	75,57
315,70	41,37
315,92	37,48
316,13	47,72
316,34	6,35
316,55	58,98
316,77	56,93
316,98	84,79
317,19	54,48
317,40	31,95
317,62	25,80
317,83	79,67
318,04	30,92
318,25	40,55
318,47	45,26
318,68	40,96
318,89	34,41
319,11	50,38
319,32	86,63
319,53	47,31
319,74	53,66
319,96	49,56
320,17	47,51
320,38	26,83
320,59	35,63
320,81	66,15
321,02	31,33
321,23	36,66
321,44	72,91
321,65	33,18
321,87	27,03
322,08	55,70
322,29	43,42
322,50	38,09
322,72	52,22
322,93	31,95
323,14	11,06
323,35	31,95
323,57	65,13
323,78	56,32
323,99	40,14
324,20	48,54
324,41	41,98
324,63	82,12
324,84	20,27
325,05	18,23
325,26	50,99
325,48	45,67
325,69	19,46
325,90	17,20
326,11	49,36
326,32	62,46
326,54	20,07
326,75	12,70
326,96	41,78
327,17	60,82
327,39	47,51
327,60	55,50
327,81	72,09
328,02	61,85
328,23	64,10
328,45	31,33
328,66	65,74
328,87	64,10
329,08	48,33
329,29	47,92
329,51	14,34
329,72	-1,23
329,93	20,07
330,14	46,49
330,35	61,85
330,56	47,31
330,78	37,07
330,99	37,68
331,20	49,36
331,41	47,31
331,62	58,78
331,84	21,71
332,05	58,98
332,26	34,82
332,47	56,52
332,68	40,14
332,90	56,11
333,11	24,78
333,32	26,62
333,53	51,20
333,74	9,22
333,95	68,81
334,17	65,74
334,38	50,79
334,59	37,07
334,80	16,79
335,01	66,35
335,22	1,02
335,44	60,01
335,65	45,67
335,86	37,27
336,07	40,96
336,28	43,01
336,49	26,83
336,71	51,61
336,92	61,03
337,13	22,32
337,34	54,07
337,55	26,42
337,76	42,19
337,97	23,35
338,19	58,98
338,40	7,78
338,61	55,30
338,82	34,00
339,03	45,67
339,24	36,25
339,45	56,73
339,67	56,93
339,88	58,78
340,09	48,13
340,30	38,71
340,51	44,24
340,72	36,86
340,93	46,49
341,15	33,18
341,36	43,21
341,57	43,83
341,78	36,04
341,99	50,18
342,20	40,55
342,41	53,04
342,62	48,33
342,84	36,04
343,05	13,52
343,26	43,62
343,47	72,91
343,68	64,31
343,89	45,87
344,10	62,87
344,31	60,42
344,53	23,76
344,74	22,73
344,95	52,02
345,16	28,06
345,37	43,01
345,58	62,67
345,79	44,44
346,00	42,80
346,21	49,36
346,42	28,88
346,64	53,66
346,85	55,70
347,06	34,41
347,27	48,95
347,48	68,81
347,69	36,25
347,90	52,22
348,11	53,04
348,32	43,21
348,53	50,79
348,75	36,66
348,96	66,76
349,17	40,96
349,38	50,38
349,59	79,67
349,80	23,76
350,01	54,48
350,22	26,83
350,43	17,41
350,64	44,85
350,85	51,61
351,06	46,90
351,28	46,90
351,49	26,42
351,70	50,58
351,91	48,13
352,12	46,49
352,33	35,02
352,54	22,73
352,75	45,87
352,96	19,05
353,17	14,54
353,38	71,88
353,59	48,13
353,80	58,37
354,01	58,78
354,22	45,46
354,44	11,06
354,65	55,09
354,86	42,39
355,07	38,91
355,28	13,31
355,49	43,42
355,70	50,58
355,91	44,24
356,12	42,19
356,33	41,78
356,54	44,24
356,75	57,75
356,96	55,09
357,17	34,41
357,38	87,24
357,59	54,07
357,80	36,45
358,01	53,86
358,22	34,41
358,43	74,34
358,64	36,25
358,85	40,34
359,07	56,93
359,28	92,36
359,49	47,31
359,70	44,24
359,91	55,50
360,12	55,50
360,33	14,95
360,54	18,43
360,75	56,93
360,96	63,28
361,17	59,39
361,38	35,02
361,59	57,34
361,80	42,19
362,01	50,79
362,22	42,19
362,43	37,89
362,64	46,28
362,85	38,71
363,06	56,32
363,27	42,19
363,48	60,62
363,69	19,87
363,90	27,44
364,11	33,38
364,32	34,82
364,53	40,55
364,74	46,08
364,95	56,52
365,16	54,48
365,37	36,45
365,58	50,99
365,79	49,15
366,00	32,15
366,21	18,84
366,42	46,69
366,63	31,13
366,84	53,25
367,05	35,84
367,26	39,32
367,47	34,41
367,68	47,31
367,89	41,98
368,10	42,60
368,31	70,04
368,52	56,73
368,73	58,57
368,94	59,80
369,15	43,01
369,36	36,66
369,57	33,38
369,78	46,08
369,99	43,01
370,20	58,78
370,40	43,83
370,61	40,55
370,82	55,50
371,03	57,96
371,24	39,94
371,45	52,22
371,66	47,31
371,87	78,44
372,08	58,98
372,29	15,15
372,50	32,36
372,71	29,08
372,92	43,01
373,13	26,83
373,34	30,92
373,55	72,91
373,76	43,62
373,97	36,66
374,18	48,33
374,39	54,68
374,60	82,53
374,81	8,60
375,01	35,02
375,22	29,08
375,43	61,85
375,64	24,58
375,85	43,01
376,06	75,98
376,27	48,33
376,48	47,72
376,69	26,62
376,90	48,54
377,11	29,49
377,32	58,98
377,53	40,75
377,74	56,52
377,94	45,06
378,15	47,31
378,36	75,16
378,57	34,61
378,78	54,27
378,99	53,04
379,20	54,68
379,41	73,93
379,62	59,80
379,83	51,20
380,04	17,41
380,25	77,62
380,45	53,86
380,66	68,61
380,87	37,07
381,08	37,07
381,29	45,87
381,50	74,75
381,71	62,87
381,92	71,27
382,13	59,60
382,34	78,64
382,55	55,09
382,75	75,98
382,96	37,68
383,17	74,34
383,38	81,10
383,59	89,29
383,80	51,20
384,01	65,94
384,22	60,21
384,43	61,23
384,63	65,74
384,84	38,30
385,05	80,89
385,26	73,32
385,47	61,85
385,68	59,60
385,89	70,25
386,10	62,67
386,30	71,88
386,51	30,31
386,72	62,67
386,93	31,95
387,14	26,62
387,35	74,34
387,56	27,65
387,77	37,48
387,97	44,85
388,18	60,82
388,39	60,82
388,60	68,81
388,81	31,54
389,02	85,61
389,23	52,43
389,43	46,90
389,64	74,34
389,85	83,97
390,06	65,54
390,27	55,50
390,48	46,08
390,69	56,32
390,89	46,69
391,10	85,61
391,31	87,45
391,52	72,91
391,73	75,98
391,94	63,08
392,14	66,15
392,35	70,25
392,56	56,73
392,77	49,56
392,98	63,90
393,19	75,37
393,39	60,62
393,60	76,80
393,81	75,37
394,02	78,64
394,23	58,78
394,44	103,83
394,64	49,15
394,85	54,07
395,06	45,67
395,27	23,96
395,48	48,95
395,69	45,46
395,89	72,09
396,10	53,25
396,31	52,43
396,52	48,54
396,73	93,18
396,93	69,63
397,14	87,65
397,35	82,33
397,56	41,98
397,77	63,28
397,97	52,43
398,18	74,75
398,39	92,16
398,60	57,34
398,81	67,99
399,01	84,17
399,22	66,15
399,43	89,29
399,64	70,45
399,85	100,96
400,05	76,59
400,26	97,07
400,47	88,88
400,68	72,70
400,89	82,12
401,09	95,44
401,30	75,77
401,51	91,75
401,72	111,41
401,93	93,59
402,13	65,74
402,34	106,90
402,55	98,10
402,76	101,37
402,96	123,08
403,17	100,15
403,38	80,28
403,59	123,90
403,80	117,35
404,00	110,18
404,21	127,59
404,42	111,00
404,63	103,63
404,83	121,44
405,04	140,29
405,25	120,83
405,46	160,77
405,66	156,67
405,87	122,06
406,08	114,28
406,29	118,58
406,49	109,16
406,70	141,31
406,91	104,24
407,12	109,36
407,32	121,65
407,53	143,36
407,74	105,47
407,95	135,99
408,15	100,35
408,36	104,45
408,57	127,18
408,78	134,55
408,98	136,60
409,19	158,51
409,40	131,68
409,61	112,43
409,81	150,73
410,02	134,14
410,23	139,88
410,44	159,54
410,64	142,95
410,85	177,15
411,06	135,78
411,26	181,86
411,47	189,23
411,68	153,19
411,89	142,33
412,09	138,24
412,30	156,87
412,51	204,39
412,72	171,21
412,92	173,05
413,13	156,67
413,34	172,23
413,54	166,91
413,75	166,50
413,96	180,43
414,17	166,09
414,37	169,37
414,58	203,36
414,79	164,86
414,99	188,00
415,20	174,49
415,41	215,65
415,61	198,04
415,82	198,45
416,03	179,20
416,24	184,32
416,44	201,32
416,65	211,15
416,86	175,72
417,06	218,52
417,27	183,29
417,48	194,35
417,68	210,94
417,89	217,29
418,10	205,82
418,30	202,75
418,51	229,58
418,72	188,62
418,92	213,60
419,13	241,66
419,34	237,36
419,55	216,68
419,75	237,56
419,96	227,32
420,17	217,70
420,37	248,42
420,58	258,86
420,79	234,29
420,99	258,04
421,20	251,08
421,41	231,63
421,61	265,21
421,82	245,96
422,03	250,06
422,23	265,62
422,44	303,71
422,65	295,11
422,85	297,57
423,06	274,84
423,26	342,22
423,47	324,19
423,68	342,01
423,88	316,82
424,09	355,53
424,30	346,31
424,50	316,82
424,71	360,44
424,92	351,64
425,12	368,43
425,33	362,08
425,54	374,37
425,74	389,52
425,95	377,44
426,15	399,76
426,36	382,56
426,57	430,89
426,77	409,39
426,98	428,64
427,19	425,98
427,39	437,45
427,60	438,06
427,81	444,20
428,01	471,85
428,22	512,81
428,42	453,63
428,63	516,70
428,84	489,46
429,04	514,04
429,25	519,36
429,45	510,15
429,66	555,82
429,87	575,07
430,07	577,32
430,28	576,50
430,49	577,12
430,69	622,17
430,90	632,41
431,10	649,00
431,31	657,19
431,52	688,94
431,72	668,46
431,93	681,77
432,13	722,11
432,34	748,94
432,55	725,39
432,75	807,51
432,96	795,23
433,16	849,91
433,37	868,75
433,58	883,90
433,78	835,98
433,99	863,01
434,19	961,73
434,40	948,21
434,60	971,35
434,81	1010,26
435,02	1007,81
435,22	1047,54
435,43	1022,14
435,63	1087,27
435,84	1136,42
436,05	1136,42
436,25	1103,86
436,46	1202,77
436,66	1189,46
436,87	1204,82
437,07	1233,90
437,28	1294,52
437,48	1324,01
437,69	1307,63
437,90	1369,68
438,10	1396,71
438,31	1416,78
438,51	1506,28
438,72	1514,88
438,92	1533,93
439,13	1553,79
439,34	1589,63
439,54	1640,22
439,75	1579,39
439,95	1682,82
440,16	1701,45
440,36	1796,48
440,57	1759,21
440,77	1892,73
440,98	1824,94
441,18	1874,10
441,39	1875,53
441,60	2024,62
441,80	1970,56
442,01	1992,06
442,21	2122,31
442,42	2061,08
442,62	2149,55
442,83	2202,80
443,03	2255,22
443,24	2317,28
443,44	2359,46
443,65	2391,41
443,85	2383,63
444,06	2481,73
444,26	2518,39
444,47	2503,64
444,67	2684,27
444,88	2619,97
445,09	2646,39
445,29	2803,46
445,50	2830,70
445,70	2836,64
445,91	2884,56
446,11	2927,16
446,32	3075,23
446,52	3082,60
446,73	3176,19
446,93	3246,03
447,14	3243,78
447,34	3314,43
447,55	3288,83
447,75	3397,78
447,96	3531,72
448,16	3500,59
448,37	3648,46
448,57	3633,51
448,78	3747,17
448,98	3774,61
449,19	3864,93
449,39	3917,15
449,60	3967,73
449,80	4091,43
450,01	4124,61
450,21	4139,97
450,42	4256,91
450,62	4338,01
450,83	4338,42
451,03	4396,37
451,23	4440,41
451,44	4503,07
451,64	4613,66
451,85	4564,51
452,05	4742,69
452,26	4713,40
452,46	4756,82
452,67	4747,40
452,87	4781,39
453,08	4770,54
453,28	4688,01
453,49	5009,33
453,69	4889,93
453,90	4890,14
454,10	5131,80
454,31	4979,43
454,51	5047,22
454,71	4981,07
454,92	4917,79
455,12	4872,32
455,33	5141,63
455,53	5102,92
455,74	5161,70
455,94	5344,58
456,15	5249,35
456,35	5438,18
456,55	5280,28
456,76	5377,97
456,96	5575,59
457,17	5051,93
457,37	5636,42
457,58	5222,73
457,78	5400,29
457,99	5299,12
458,19	4884,61
458,39	5261,64
458,60	5190,78
458,80	5128,11
459,01	4927,21
459,21	4860,03
459,42	4898,74
459,62	4623,70
459,82	5040,05
460,03	4750,06
460,23	4838,12
460,44	4659,74
460,64	4326,13
460,85	4682,27
461,05	4329,20
461,25	4181,34
461,46	4498,98
461,66	4275,34
461,87	4094,50
462,07	4055,80
462,27	3853,46
462,48	3745,12
462,68	3794,27
462,89	3733,24
463,09	3637,60
463,29	3715,63
463,50	3612,62
463,70	3661,77
463,91	3446,32
464,11	3364,61
464,31	3380,17
464,52	3375,67
464,72	3468,24
464,93	3233,95
465,13	3445,91
465,33	3181,93
465,54	2968,94
465,74	2999,86
465,95	3079,33
466,15	3073,39
466,35	3041,85
466,56	2951,33
466,76	2961,98
466,96	2849,13
467,17	2804,49
467,37	2816,57
467,58	2736,09
467,78	2691,44
467,98	2745,92
468,19	2606,04
468,39	2755,54
468,59	2724,82
468,80	2628,16
469,00	2515,11
469,21	2489,51
469,41	2505,69
469,61	2559,76
469,82	2406,98
470,02	2477,84
470,22	2573,27
470,43	2479,27
470,63	2331,00
470,83	2470,67
471,04	2372,98
471,24	2385,47
471,45	2266,08
471,65	2295,98
471,85	2236,38
472,06	2269,56
472,26	2253,18
472,46	2233,11
472,67	2265,05
472,87	2205,46
473,07	2188,87
473,28	2124,15
473,48	2167,37
473,68	2180,88
473,89	2120,06
474,09	2132,35
474,29	2027,69
474,50	2092,61
474,70	2014,59
474,90	2061,08
475,11	2041,42
475,31	2044,28
475,51	2025,03
475,72	1990,01
475,92	1989,60
476,12	1937,38
476,33	1994,93
476,53	1908,50
476,73	1934,10
476,93	1979,16
477,14	1838,26
477,34	1847,47
477,54	1852,80
477,75	1885,77
477,95	1843,99
478,15	1801,19
478,36	1799,96
478,56	1809,18
478,76	1814,30
478,97	1784,19
479,17	1789,92
479,37	1748,76
479,57	1720,09
479,78	1729,92
479,98	1679,54
480,18	1725,21
480,39	1727,05
480,59	1671,55
480,79	1692,85
480,99	1666,64
481,20	1666,23
481,40	1688,76
481,60	1674,83
481,81	1631,21
482,01	1610,52
482,21	1623,02
482,41	1621,17
482,62	1600,49
482,82	1659,47
483,02	1582,47
483,23	1593,93
483,43	1587,99
483,63	1572,64
483,83	1568,95
484,04	1547,65
484,24	1545,19
484,44	1582,88
484,64	1538,43
484,85	1557,89
485,05	1527,58
485,25	1543,14
485,45	1531,27
485,66	1545,81
485,86	1498,29
486,06	1517,75
486,26	1519,80
486,47	1512,63
486,67	1513,86
486,87	1496,25
487,07	1439,31
487,28	1442,79
487,48	1474,33
487,68	1470,85
487,88	1450,17
488,09	1438,29
488,29	1438,49
488,49	1467,98
488,69	1477,61
488,90	1434,19
489,10	1441,16
489,30	1426,82
489,50	1422,31
489,71	1439,93
489,91	1447,91
490,11	1432,35
490,31	1459,59
490,52	1452,42
490,72	1431,12
490,92	1475,56
491,12	1443,00
491,32	1440,75
491,53	1478,43
491,73	1448,73
491,93	1482,73
492,13	1480,68
492,33	1431,94
492,54	1433,17
492,74	1456,31
492,94	1471,88
493,14	1461,84
493,35	1406,75
493,55	1469,42
493,75	1448,94
493,95	1406,14
494,15	1458,15
494,36	1450,99
494,56	1421,29
494,76	1429,07
494,96	1474,95
495,16	1472,28
495,37	1476,38
495,57	1422,31
495,77	1489,69
495,97	1500,96
496,17	1473,92
496,37	1493,38
496,58	1475,15
496,78	1477,00
496,98	1462,66
497,18	1552,97
497,38	1517,95
497,59	1538,64
497,79	1517,14
497,99	1501,37
498,19	1513,45
498,39	1528,60
498,59	1524,30
498,80	1511,20
499,00	1531,47
499,20	1514,68
499,40	1520,21
499,60	1523,69
499,80	1567,72
500,01	1510,99
500,21	1543,55
500,41	1558,09
500,61	1601,51
500,81	1565,26
501,01	1584,10
501,22	1619,94
501,42	1592,71
501,62	1590,04
501,82	1606,02
502,02	1570,79
502,22	1600,28
502,42	1610,73
502,63	1652,92
502,83	1606,22
503,03	1624,86
503,23	1625,27
503,43	1619,53
503,63	1621,79
503,83	1657,42
504,04	1647,39
504,24	1658,85
504,44	1636,74
504,64	1702,48
504,84	1650,46
505,04	1694,49
505,24	1651,07
505,44	1735,04
505,65	1669,91
505,85	1739,95
506,05	1724,59
506,25	1735,86
506,45	1702,89
506,65	1756,13
506,85	1705,34
507,05	1750,81
507,26	1772,52
507,46	1770,06
507,66	1780,30
507,86	1778,66
508,06	1869,80
508,26	1821,67
508,46	1877,78
508,66	1826,38
508,86	1874,10
509,06	1901,33
509,27	1873,69
509,47	1910,14
509,67	1950,28
509,87	1915,47
510,07	1942,70
510,27	2002,71
510,47	1970,76
510,67	1990,83
510,87	2041,42
511,07	2021,55
511,28	2004,35
511,48	2019,71
511,68	2045,31
511,88	2041,82
512,08	2038,96
512,28	2082,17
512,48	2077,05
512,68	2154,26
512,88	2160,81
513,08	2135,21
513,28	2175,76
513,48	2156,72
513,68	2159,79
513,89	2155,49
514,09	2190,51
514,29	2256,45
514,49	2212,22
514,69	2259,93
514,89	2223,89
515,09	2289,42
515,29	2250,51
515,49	2306,01
515,69	2314,00
515,89	2333,46
516,09	2384,65
516,29	2340,01
516,49	2350,04
516,69	2426,23
516,89	2428,28
517,09	2413,53
517,29	2443,64
517,50	2397,97
517,70	2434,01
517,90	2395,71
518,10	2385,68
518,30	2458,38
518,50	2457,77
518,70	2541,12
518,90	2517,77
519,10	2568,77
519,30	2568,36
519,50	2596,41
519,70	2590,68
519,90	2631,03
520,10	2625,70
520,30	2621,20
520,50	2659,70
520,70	2678,54
520,90	2718,27
521,10	2694,51
521,30	2716,02
521,50	2810,22
521,70	2739,57
521,90	2779,91
522,10	2820,46
522,30	2789,13
522,50	2841,35
522,70	2849,13
522,90	2837,05
523,10	2870,23
523,30	2897,47
523,50	2876,17
523,70	2921,84
523,90	2855,28
524,10	2948,87
524,30	2902,18
524,50	2942,11
524,70	2954,40
524,90	2950,30
525,10	3013,38
525,30	2960,13
525,50	3045,94
525,70	3019,12
525,90	3011,54
526,10	3033,86
526,30	3045,12
526,50	3066,83
526,70	3098,17
526,90	3057,82
527,10	3061,30
527,30	3040,21
527,50	3131,14
527,70	3126,22
527,90	3070,31
528,10	3127,25
528,30	3135,85
528,50	3130,73
528,70	3167,39
528,90	3201,79
529,10	3154,28
529,30	3182,75
529,50	3218,18
529,70	3179,27
529,90	3235,18
530,10	3215,31
530,29	3240,91
530,49	3294,36
530,69	3267,74
530,89	3268,97
531,09	3254,84
531,29	3273,27
531,49	3294,98
531,69	3296,82
531,89	3262,82
532,09	3346,59
532,29	3275,52
532,49	3331,43
532,69	3352,93
532,89	3288,63
533,09	3366,04
533,29	3356,01
533,49	3325,08
533,68	3367,48
533,88	3403,72
534,08	3350,68
534,28	3306,65
534,48	3349,66
534,68	3351,09
534,88	3348,02
535,08	3316,69
535,28	3359,49
535,48	3405,77
535,68	3392,87
535,88	3399,01
536,08	3423,18
536,27	3369,93
536,47	3388,57
536,67	3431,37
536,87	3439,15
537,07	3411,30
537,27	3458,00
537,47	3458,40
537,67	3450,21
537,87	3435,26
538,07	3463,73
538,27	3383,45
538,46	3427,69
538,66	3412,74
538,86	3406,39
539,06	3447,76
539,26	3384,27
539,46	3426,87
539,66	3431,17
539,86	3437,93
540,06	3447,55
540,25	3420,72
540,45	3450,21
540,65	3415,19
540,85	3454,72
541,05	3428,50
541,25	3438,74
541,45	3437,52
541,65	3421,54
541,85	3426,46
542,04	3420,72
542,24	3413,55
542,44	3435,47
542,64	3462,71
542,84	3390,82
543,04	3381,61
543,24	3427,48
543,43	3443,45
543,63	3428,30
543,83	3398,81
544,03	3432,81
544,23	3365,02
544,43	3425,84
544,63	3402,50
544,82	3444,07
545,02	3410,69
545,22	3416,22
545,42	3391,85
545,62	3478,47
545,82	3470,69
546,02	3377,51
546,21	3405,57
546,41	3460,25
546,61	3365,84
546,81	3366,25
547,01	3426,05
547,21	3394,30
547,40	3390,21
547,60	3404,95
547,80	3349,86
548,00	3412,33
548,20	3351,91
548,40	3341,06
548,59	3418,47
548,79	3396,97
548,99	3380,58
549,19	3349,04
549,39	3367,68
549,59	3327,74
549,78	3357,85
549,98	3380,99
550,18	3351,50
550,38	3289,45
550,58	3385,91
550,77	3356,62
550,97	3358,26
551,17	3331,02
551,37	3332,25
551,57	3306,45
551,76	3258,93
551,96	3342,08
552,16	3275,32
552,36	3277,16
552,56	3238,04
552,75	3292,93
552,95	3295,18
553,15	3270,40
553,35	3297,02
553,55	3272,45
553,74	3274,91
553,94	3253,20
554,14	3280,23
554,34	3234,56
554,54	3225,96
554,73	3273,68
554,93	3266,31
555,13	3230,88
555,33	3225,96
555,53	3235,18
555,72	3243,78
555,92	3217,97
556,12	3244,60
556,32	3169,03
556,51	3187,05
556,71	3266,10
556,91	3163,29
557,11	3208,35
557,30	3208,55
557,50	3183,16
557,70	3185,21
557,90	3171,07
558,10	3179,47
558,29	3140,56
558,49	3172,30
558,69	3077,48
558,89	3137,69
559,08	3183,98
559,28	3137,08
559,48	3114,35
559,68	3171,07
559,87	3159,81
560,07	3102,67
560,27	3158,79
560,47	3138,72
560,66	3162,88
560,86	3071,54
561,06	3080,55
561,25	3136,87
561,45	3163,09
561,65	3118,03
561,85	3094,07
562,04	3018,30
562,24	3086,29
562,44	3077,28
562,64	3068,68
562,83	3038,78
563,03	3029,36
563,23	3034,88
563,42	3028,74
563,62	3071,95
563,82	2996,59
564,02	3063,76
564,21	3051,88
564,41	3051,06
564,61	3011,13
564,80	3052,91
565,00	3062,33
565,20	3036,32
565,40	3017,48
565,59	3033,25
565,79	3052,50
565,99	3045,94
566,18	2962,39
566,38	3000,48
566,58	2945,80
566,78	2940,68
566,97	2994,95
567,17	2976,11
567,37	2981,23
567,56	2963,62
567,76	2961,98
567,96	3026,08
568,15	2955,22
568,35	2961,36
568,55	2964,64
568,74	2932,49
568,94	2926,34
569,14	2960,54
569,33	2921,43
569,53	2884,36
569,73	2899,31
569,92	2890,30
570,12	2874,53
570,32	2902,59
570,52	2884,15
570,71	2921,63
570,91	2898,90
571,11	2939,86
571,30	2844,22
571,50	2865,72
571,70	2881,08
571,89	2830,70
572,09	2906,68
572,28	2829,27
572,48	2827,63
572,68	2855,48
572,87	2859,37
573,07	2852,82
573,27	2833,77
573,46	2845,86
573,66	2850,36
573,86	2863,47
574,05	2834,80
574,25	2854,05
574,45	2805,31
574,64	2867,16
574,84	2852,41
575,04	2803,67
575,23	2828,04
575,43	2872,28
575,62	2815,34
575,82	2791,59
576,02	2806,33
576,21	2785,24
576,41	2776,84
576,61	2776,43
576,80	2729,12
577,00	2781,96
577,19	2820,67
577,39	2800,39
577,59	2735,47
577,78	2764,55
577,98	2804,08
578,18	2729,33
578,37	2777,05
578,57	2807,56
578,76	2740,80
578,96	2732,20
579,16	2742,03
579,35	2746,33
579,55	2751,65
579,74	2758,61
579,94	2727,28
580,14	2736,70
580,33	2786,06
580,53	2771,93
580,72	2715,61
580,92	2731,38
581,12	2684,48
581,31	2705,37
581,51	2737,11
581,70	2726,87
581,90	2650,69
582,10	2762,71
582,29	2723,59
582,49	2710,90
582,68	2702,70
582,88	2686,53
583,07	2707,21
583,27	2711,72
583,47	2701,89
583,66	2712,74
583,86	2708,44
584,05	2662,36
584,25	2653,14
584,44	2681,00
584,64	2661,34
584,84	2641,88
585,03	2636,15
585,23	2641,47
585,42	2651,30
585,62	2656,01
585,81	2647,82
586,01	2662,15
586,20	2635,53
586,40	2610,34
586,60	2622,01
586,79	2618,53
586,99	2618,53
587,18	2580,44
587,38	2593,96
587,57	2582,90
587,77	2575,53
587,96	2575,32
588,16	2560,37
588,35	2601,53
588,55	2591,09
588,75	2590,27
588,94	2579,83
589,14	2592,52
589,33	2540,71
589,53	2537,02
589,72	2525,15
589,92	2530,47
590,11	2526,58
590,31	2489,31
590,50	2530,67
590,70	2489,51
590,89	2499,14
591,09	2476,81
591,28	2460,63
591,48	2433,19
591,67	2474,97
591,87	2486,85
592,06	2437,90
592,26	2417,83
592,45	2452,65
592,65	2449,58
592,84	2471,90
593,04	2417,42
593,23	2451,01
593,43	2431,76
593,62	2430,53
593,82	2382,40
594,01	2430,73
594,21	2399,60
594,40	2331,41
594,60	2411,07
594,79	2405,13
594,99	2330,79
595,18	2344,11
595,38	2389,37
595,57	2323,63
595,77	2419,06
595,96	2382,40
596,16	2343,08
596,35	2331,00
596,55	2324,24
596,74	2330,79
596,94	2288,20
597,13	2286,35
597,33	2296,80
597,52	2293,32
597,72	2267,31
597,91	2270,58
598,11	2323,83
598,30	2226,14
598,50	2230,85
598,69	2226,76
598,88	2218,56
599,08	2215,70
599,27	2242,94
599,47	2248,06
599,66	2252,77
599,86	2231,06
600,05	2178,42
600,25	2200,54
600,44	2170,23
600,64	2184,16
600,83	2184,57
601,02	2177,61
601,22	2167,16
601,41	2139,51
601,61	2120,26
601,80	2137,06
602,00	2134,39
602,19	2087,90
602,38	2094,87
602,58	2098,76
602,77	2139,10
602,97	2097,12
603,16	2120,47
603,36	2052,06
603,55	2097,53
603,74	2042,23
603,94	2064,97
604,13	2073,77
604,33	2031,99
604,52	2035,48
604,72	2044,69
604,91	2008,24
605,10	1987,55
605,30	1978,34
605,49	2025,03
605,69	1983,66
605,88	2006,80
606,07	1987,55
606,27	1957,86
606,46	2001,28
606,66	1977,52
606,85	1920,79
607,04	1936,56
607,24	1926,11
607,43	1913,42
607,63	1880,85
607,82	1905,84
608,01	1902,97
608,21	1843,17
608,40	1876,55
608,60	1847,88
608,79	1829,25
608,98	1813,07
609,18	1864,27
609,37	1822,28
609,57	1795,45
609,76	1809,59
609,95	1794,84
610,15	1846,45
610,34	1817,98
610,53	1754,90
610,73	1757,98
610,92	1773,54
611,11	1779,07
611,31	1757,36
611,50	1780,09
611,70	1764,33
611,89	1732,79
612,08	1766,58
612,28	1741,18
612,47	1748,35
612,66	1708,21
612,86	1727,26
613,05	1709,64
613,24	1713,33
613,44	1673,60
613,63	1667,05
613,82	1673,19
614,02	1692,24
614,21	1698,99
614,41	1654,55
614,60	1663,77
614,79	1634,89
614,99	1628,34
615,18	1666,02
615,37	1652,30
615,57	1650,46
615,76	1650,66
615,95	1684,45
616,15	1630,18
616,34	1658,45
616,53	1676,26
616,73	1672,99
616,92	1616,67
617,11	1616,67
617,30	1671,96
617,50	1625,88
617,69	1605,20
617,88	1634,69
618,08	1620,76
618,27	1615,64
618,46	1629,57
618,66	1625,27
618,85	1626,09
619,04	1606,43
619,24	1618,51
619,43	1615,44
619,62	1617,90
619,82	1584,31
620,01	1569,56
620,20	1663,36
620,39	1600,69
620,59	1609,29
620,78	1602,95
620,97	1576,12
621,17	1599,87
621,36	1604,38
621,55	1601,72
621,74	1593,52
621,94	1558,30
622,13	1567,92
622,32	1572,23
622,52	1568,74
622,71	1609,70
622,90	1599,05
623,09	1551,54
623,29	1565,88
623,48	1544,58
623,67	1592,50
623,86	1561,78
624,06	1531,88
624,25	1527,78
624,44	1551,34
624,64	1584,31
624,83	1539,66
625,02	1551,75
625,21	1529,63
625,41	1531,68
625,60	1510,79
625,79	1522,05
625,98	1482,52
626,18	1559,94
626,37	1475,56
626,56	1482,11
626,75	1473,72
626,95	1450,58
627,14	1469,01
627,33	1487,44
627,52	1486,01
627,72	1490,72
627,91	1436,45
628,10	1478,84
628,29	1422,11
628,49	1437,26
628,68	1441,97
628,87	1406,95
629,06	1436,04
629,25	1409,41
629,45	1416,17
629,64	1472,49
629,83	1386,27
630,02	1391,59
630,22	1398,56
630,41	1397,94
630,60	1425,59
630,79	1363,54
630,98	1389,96
631,18	1378,28
631,37	1352,48
631,56	1379,51
631,75	1397,33
631,94	1320,12
632,14	1345,11
632,33	1343,06
632,52	1328,11
632,71	1334,25
632,90	1312,13
633,10	1305,58
633,29	1326,67
633,48	1339,58
633,67	1287,56
633,86	1302,51
634,06	1325,85
634,25	1239,64
634,44	1334,25
634,63	1293,70
634,82	1282,44
635,02	1229,40
635,21	1253,97
635,40	1263,80
635,59	1243,32
635,78	1267,28
635,97	1225,30
636,17	1213,63
636,36	1237,18
636,55	1213,42
636,74	1253,77
636,93	1215,26
637,12	1217,52
637,32	1244,35
637,51	1178,81
637,70	1248,65
637,89	1214,86
638,08	1194,38
638,27	1205,23
638,47	1206,87
638,66	1186,59
638,85	1169,59
639,04	1200,72
639,23	1201,75
639,42	1165,29
639,62	1189,67
639,81	1157,72
640,00	1127,20
640,19	1104,26
640,38	1155,67
640,57	1164,88
640,76	1141,95
640,95	1124,33
641,15	1094,02
641,34	1053,88
641,53	1115,73
641,72	1086,45
641,91	1076,00
642,10	1087,06
642,29	1089,31
642,49	1071,70
642,68	1067,61
642,87	1055,32
643,06	1072,93
643,25	1092,59
643,44	1054,91
643,63	1036,48
643,82	1042,83
644,01	1055,32
644,21	1052,66
644,40	1060,03
644,59	1011,49
644,78	1026,85
644,97	990,40
645,16	1011,90
645,35	1014,77
645,54	994,49
645,73	1013,95
645,92	1036,07
646,12	1023,98
646,31	995,52
646,50	988,76
646,69	1021,32
646,88	933,67
647,07	1022,55
647,26	938,38
647,45	960,91
647,64	960,70
647,83	963,77
648,02	954,56
648,22	935,51
648,41	932,64
648,60	991,42
648,79	931,21
648,98	962,95
649,17	891,89
649,36	894,96
649,55	905,41
649,74	931,01
649,93	910,94
650,12	902,95
650,31	918,31
650,50	851,14
650,69	877,96
650,88	878,58
651,08	859,12
651,27	873,46
651,46	868,75
651,65	864,65
651,84	892,10
652,03	872,64
652,22	864,24
652,41	880,63
652,60	854,41
652,79	840,49
652,98	827,79
653,17	844,58
653,36	859,33
653,55	812,22
653,74	848,27
653,93	826,97
654,12	855,64
654,31	825,54
654,50	817,75
654,69	806,90
654,88	843,76
655,07	811,00
655,26	806,90
655,45	795,64
655,64	815,50
655,83	779,25
656,02	764,71
656,21	767,78
656,40	776,38
656,59	780,28
656,78	745,46
656,97	743,82
657,17	731,12
657,36	761,84
657,55	770,24
657,74	722,32
657,93	747,30
658,12	745,26
658,31	759,59
658,50	715,15
658,69	684,84
658,87	720,88
659,06	697,95
659,25	723,55
659,44	719,66
659,63	726,62
659,82	706,75
660,01	698,97
660,20	728,46
660,39	704,30
660,58	685,86
660,77	695,69
660,96	681,77
661,15	660,06
661,34	696,10
661,53	692,21
661,72	684,23
661,91	651,87
662,10	663,95
662,29	676,03
662,48	677,67
662,67	671,32
662,86	664,57
663,05	646,54
663,24	641,83
663,43	636,92
663,62	652,69
663,81	647,77
664,00	604,97
664,19	645,52
664,38	631,39
664,57	642,65
664,76	662,52
664,94	650,64
665,13	615,41
665,32	573,02
665,51	631,18
665,70	616,64
665,89	614,80
666,08	583,47
666,27	586,95
666,46	604,15
666,65	591,45
666,84	576,50
667,03	620,94
667,22	568,31
667,41	580,19
667,60	559,91
667,78	561,35
667,97	568,11
668,16	551,93
668,35	608,45
668,54	535,75
668,73	617,87
668,92	538,82
669,11	527,56
669,30	527,97
669,49	570,36
669,68	538,41
669,86	540,66
670,05	539,43
670,24	563,81
670,43	558,28
670,62	569,13
670,81	533,29
671,00	563,81
671,19	529,40
671,38	509,74
671,57	515,68
671,75	512,20
671,94	507,69
672,13	495,20
672,32	485,78
672,51	518,34
672,70	514,86
672,89	494,38
673,08	458,54
673,26	471,44
673,45	503,39
673,64	452,19
673,83	490,90
674,02	480,45
674,21	476,77
674,40	454,03
674,59	488,24
674,77	512,40
674,96	450,96
675,15	461,61
675,34	483,32
675,53	508,10
675,72	497,66
675,91	445,23
676,09	441,95
676,28	451,17
676,47	472,06
676,66	420,45
676,85	458,34
677,04	439,08
677,22	436,63
677,41	404,27
677,60	446,25
677,79	383,79
677,98	432,33
678,17	437,86
678,36	416,56
678,54	408,16
678,73	397,10
678,92	416,35
679,11	417,38
679,30	451,17
679,48	401,81
679,67	417,17
679,86	398,13
680,05	394,64
680,24	359,83
680,43	371,09
680,61	368,63
680,80	378,06
680,99	357,78
681,18	395,26
681,37	393,41
681,55	370,48
681,74	399,35
681,93	373,75
682,12	385,22
682,31	416,56
682,49	399,97
682,68	385,43
682,87	358,60
683,06	372,12
683,25	381,54
683,43	350,00
683,62	347,95
683,81	402,84
684,00	383,58
684,19	360,24
684,37	330,54
684,56	370,07
684,75	363,31
684,94	365,36
685,12	356,55
685,31	303,10
685,50	358,60
685,69	339,55
685,88	353,27
686,06	319,69
686,25	344,88
686,44	317,84
686,63	331,98
686,81	344,06
687,00	361,67
687,19	322,76
687,38	318,46
687,56	300,85
687,75	313,95
687,94	317,84
688,13	316,21
688,31	292,45
688,50	317,23
688,69	299,82
688,88	280,78
689,06	272,58
689,25	316,00
689,44	320,30
689,63	299,62
689,81	306,79
690,00	329,31
690,19	281,39
690,38	299,62
690,56	278,11
690,75	282,62
690,94	295,32
691,13	291,22
691,31	275,25
691,50	288,76
691,69	313,34
691,87	283,44
692,06	303,71
692,25	301,87
692,44	260,71
692,62	256,00
692,81	293,47
693,00	260,91
693,18	257,43
693,37	262,75
693,56	239,41
693,75	238,38
693,93	275,45
694,12	259,89
694,31	254,56
694,49	269,92
694,68	253,33
694,87	258,66
695,05	256,00
695,24	267,06
695,43	252,92
695,62	267,06
695,80	227,53
695,99	214,83
696,18	251,90
696,36	251,08
696,55	248,01
696,74	226,51
696,92	238,59
697,11	234,90
697,30	256,20
697,48	223,43
697,67	213,60
697,86	226,91
698,04	203,98
698,23	204,59
698,42	250,67
698,60	201,72
698,79	230,81
698,98	230,81
699,16	203,98
699,35	209,30
699,54	212,37
699,72	205,62
699,91	214,42
700,10	204,18
700,28	211,56
700,47	202,54
700,66	212,78
700,84	191,08
701,03	182,88
701,21	209,71
701,40	228,14
701,59	197,01
701,77	191,49
701,96	190,87
702,15	215,45
702,33	174,28
702,52	173,67
702,71	227,32
702,89	178,99
703,08	201,11
703,26	175,31
703,45	199,68
703,64	227,73
703,82	192,51
704,01	196,81
704,20	156,87
704,38	196,60
704,57	178,38
704,75	160,77
704,94	182,88
705,13	142,74
705,31	220,98
705,50	201,93
705,68	143,77
705,87	159,54
706,06	151,55
706,24	175,51
706,43	155,24
706,61	152,37
706,80	166,30
706,99	177,56
707,17	167,11
707,36	165,68
707,54	121,44
707,73	208,48
707,92	171,62
708,10	194,76
708,29	125,75
708,47	154,42
708,66	153,80
708,84	170,60
709,03	121,85
709,22	145,20
709,40	177,35
709,59	141,51
709,77	152,78
709,96	122,88
710,14	155,24
710,33	124,11
710,52	122,88
710,70	166,70
710,89	140,29
711,07	140,08
711,26	134,35
711,44	152,16
711,63	130,66
711,81	166,09
712,00	148,07
712,19	154,83
712,37	116,32
712,56	86,01
712,74	134,55
712,93	116,94
713,11	130,66
713,30	122,26
713,48	150,94
713,67	107,72
713,85	128,61
714,04	134,76
714,22	121,44
714,41	82,33
714,59	127,59
714,78	138,85
714,97	97,28
715,15	106,49
715,34	117,96
715,52	127,79
715,71	124,11
715,89	138,24
716,08	100,15
716,26	87,04
716,45	115,10
716,63	123,08
716,82	68,61
717,00	114,48
717,19	101,17
717,37	135,58
717,56	102,60
717,74	98,71
717,93	117,14
718,11	82,94
718,30	110,18
718,48	106,70
718,67	145,41
718,85	133,32
719,04	139,06
719,22	130,87
719,41	91,54
719,59	116,73
719,78	124,52
719,96	115,51
720,15	110,59
720,33	77,82
720,52	116,53
720,70	110,39
720,88	107,11
721,07	115,10
721,25	104,04
721,44	88,27
721,62	127,79
721,81	95,03
721,99	96,66
722,18	73,52
722,36	61,03
722,55	101,37
722,73	45,87
722,92	92,36
723,10	109,98
723,28	114,89
723,47	89,91
723,65	80,08
723,84	98,71
724,02	123,08
724,21	98,51
724,39	108,95
724,58	95,23
724,76	80,08
724,94	66,35
725,13	111,20
725,31	100,35
725,50	89,29
725,68	81,51
725,87	99,94
726,05	82,53
726,23	75,16
726,42	106,08
726,60	57,14
726,79	65,74
726,97	103,22
727,16	96,46
727,34	47,92
727,52	66,56
727,71	95,03
727,89	86,63
728,08	75,37
728,26	77,82
728,44	64,51
728,63	24,99
728,81	81,92
729,00	51,20
729,18	83,35
729,36	40,96
729,55	92,16
729,73	104,86
729,92	78,23
730,10	54,07
730,28	71,88
730,47	53,25
730,65	97,89
730,84	68,81
731,02	40,75
731,20	85,61
731,39	66,15
731,57	66,97
731,75	71,88
731,94	74,96
732,12	57,75
732,31	70,25
732,49	83,97
732,67	31,74
732,86	82,53
733,04	60,01
733,22	36,04
733,41	30,72
733,59	50,79
733,78	45,06
733,96	81,10
734,14	52,84
734,33	40,75
734,51	30,72
734,69	57,55
734,88	62,26
735,06	58,98
735,24	68,40
735,43	57,55
735,61	19,46
735,79	48,74
735,98	37,27
736,16	69,02
736,34	85,81
736,53	58,98
736,71	18,23
736,89	22,32
737,08	96,87
737,26	32,77
737,44	44,24
737,63	43,62
737,81	34,41
737,99	44,24
738,18	65,74
738,36	63,08
738,54	35,63
738,73	50,79
738,91	20,89
739,09	64,31
739,28	60,01
739,46	38,30
739,64	41,37
739,82	54,07
740,01	50,58
740,19	70,25
740,37	54,68
740,56	52,43
740,74	48,95
740,92	34,61
741,11	23,96
741,29	53,86
741,47	62,87
741,65	27,44
741,84	60,42
742,02	18,84
742,20	19,46
742,39	11,88
742,57	22,32
742,75	61,23
742,93	64,10
743,12	25,39
743,30	25,19
743,48	68,20
743,67	28,47
743,85	39,53
744,03	60,21
744,21	30,72
744,40	40,55
744,58	48,33
744,76	31,74
744,94	43,83
745,13	4,92
745,31	32,36
745,49	51,61
745,67	32,77
745,86	34,20
746,04	36,45
746,22	18,02
746,40	28,67
746,59	26,21
746,77	18,02
746,95	52,02
747,13	7,58
747,32	25,39
747,50	9,22
747,68	28,88
747,86	57,55
748,05	44,44
748,23	51,81
748,41	23,35
748,59	-4,92
748,77	28,26
748,96	21,09
749,14	35,63
749,32	10,24
749,50	31,13
749,69	29,90
749,87	35,43
750,05	38,50
750,23	22,12
750,41	22,94
750,60	42,60
750,78	51,61
750,96	13,93
751,14	8,81
751,32	40,34
751,51	21,09
751,69	4,71
751,87	31,54
752,05	-1,64
752,23	29,70
752,42	21,30
752,60	39,53
752,78	39,53
752,96	-11,88
753,14	17,41
753,33	12,08
753,51	27,44
753,69	27,85
753,87	21,30
754,05	40,75
754,23	14,75
754,42	30,31
754,60	31,13
754,78	39,94
754,96	36,86
755,14	-13,93
755,32	-13,52
755,51	14,34
755,69	30,92
755,87	3,69
756,05	11,26
756,23	23,96
756,41	26,62
756,60	8,40
756,78	33,79
756,96	15,36
757,14	36,25
757,32	-6,14
757,50	16,59
757,68	21,30
757,87	36,45
758,05	22,94
758,23	-13,11
758,41	6,76
758,59	30,72
758,77	22,73
758,95	3,07
759,14	29,49
759,32	26,42
759,50	16,38
759,68	55,09
759,86	47,10
760,04	58,57
760,22	85,20
760,40	72,91
760,59	82,12
760,77	53,25
760,95	81,92
761,13	66,56
761,31	48,54
761,49	74,55
761,67	108,75
761,85	62,26
762,03	60,21
762,22	53,86
762,40	69,22
762,58	37,68
762,76	67,99
762,94	29,49
763,12	82,53
763,30	72,09
763,48	15,36
763,66	88,27
763,84	56,93
764,02	22,32
764,21	49,56
764,39	26,42
764,57	96,05
764,75	23,55
764,93	35,43
765,11	40,96
765,29	60,82
765,47	32,97
765,65	40,75
765,83	58,37
766,01	10,85
766,19	58,78
766,37	6,96
766,56	1,84
766,74	38,50
766,92	11,26
767,10	45,06
767,28	16,79
767,46	-6,55
767,64	-31,13
767,82	12,08
768,00	37,48
768,18	4,51
768,36	-2,66
768,54	12,90
768,72	0,82
768,90	10,24
769,08	27,03
769,26	-23,76
769,44	5,12
769,62	8,81
769,80	1,84
769,98	8,40
770,16	15,77
770,34	20,68
770,52	19,05
770,71	-9,22
770,89	3,48
771,07	-9,83
771,25	5,53
771,43	-0,61
771,61	12,29
771,79	5,94
771,97	-39,53
772,15	-5,53
772,33	-40,14
772,51	-16,59
772,69	25,80
772,87	2,87
773,05	-21,91
773,23	17,20
773,41	2,46
773,59	-19,87
773,77	15,15
773,95	5,94
774,13	-18,84
774,31	3,69
774,49	1,02
774,67	7,78
774,85	4,51
775,03	5,73
775,21	1,64
775,39	-28,88
775,57	34,20
775,75	14,13
775,93	-7,78
776,10	-19,46
776,28	-23,14
776,46	-5,73
776,64	-13,93
776,82	20,07
777,00	34,41
777,18	-3,07
777,36	9,01
777,54	4,30
777,72	6,14
777,90	7,99
778,08	20,68
778,26	14,54
778,44	-17,82
778,62	12,08
778,80	8,19
778,98	1,64
779,16	15,36
779,34	-28,26
779,52	3,69
779,70	2,66
779,88	14,75
780,05	2,66
780,23	-2,46
780,41	25,39
780,59	10,44
780,77	28,26
780,95	8,81
781,13	-11,47
781,31	-9,01
781,49	4,92
781,67	-23,35
781,85	11,67
782,03	1,02
782,21	2,46
782,39	6,96
782,56	36,66
782,74	-14,95
782,92	-31,13
783,10	61,03
783,28	-5,12
783,46	-18,23
783,64	6,55
783,82	5,94
784,00	25,19
784,18	-8,19
784,35	-5,32
784,53	-9,22
784,71	-12,29
784,89	7,37
785,07	-30,72
785,25	-14,75
785,43	12,08
785,61	-41,98
785,79	-15,97
785,96	-3,69
786,14	18,23
786,32	22,73
786,50	31,54
786,68	-20,48
786,86	-10,24
787,04	-23,55
787,22	-7,58
787,39	-0,61
787,57	-7,58
787,75	-14,34
787,93	6,96
788,11	11,88
788,29	4,51
788,47	-10,44
788,65	-14,75
788,82	-26,21
789,00	6,14
789,18	17,00
789,36	7,58
789,54	5,73
789,72	-22,53
789,89	0,82
790,07	33,59
790,25	-33,79
790,43	12,90
790,61	9,22
790,79	10,65
790,96	-16,59
791,14	6,14
791,32	7,58
791,50	-38,91
791,68	16,18
791,86	13,52
792,03	25,60
792,21	0,41
792,39	6,96
792,57	-14,54
792,75	8,19
792,93	-0,61
793,10	2,05
793,28	13,31
793,46	19,46
793,64	-3,69
793,82	26,83
793,99	18,02
794,17	1,43
794,35	9,63
794,53	13,31
794,71	12,90
794,88	-17,61
795,06	-9,01
795,24	17,61
795,42	-0,20
795,60	-21,71
795,77	2,25
795,95	-0,20
796,13	0,00
796,31	36,86
796,49	-4,71
796,66	3,89
796,84	-13,93
797,02	14,34
797,20	27,03
797,37	-31,54
797,55	-33,79
797,73	11,88
797,91	14,95
798,08	-2,46
798,26	-12,08
798,44	-13,52
798,62	-32,77
798,80	12,49
798,97	29,90
799,15	29,49
799,33	8,40
799,51	44,24
799,68	19,66
799,86	26,42
800,04	-5,12
800,22	-17,41
800,39	0,41
800,57	8,81
800,75	-3,28
800,93	-8,19
801,10	-15,97
801,28	-0,41
801,46	-26,01
801,63	-23,96
801,81	32,15
801,99	14,34
802,17	14,13
802,34	-11,67
802,52	2,25
802,70	-1,64
802,88	14,13
803,05	27,24
803,23	28,26
803,41	18,02
803,58	-9,42
803,76	39,12
803,94	0,20
804,12	-10,24
804,29	45,06
804,47	45,06
804,65	23,14
804,82	-0,20
805,00	15,97
805,18	9,63
805,35	34,82
805,53	23,14
805,71	-0,41
805,89	20,68
806,06	-18,02
806,24	15,77
806,42	27,85
806,59	3,28
806,77	12,49
806,95	-24,58
807,12	-23,14
807,30	-18,84
807,48	13,93
807,65	-9,01
807,83	23,14
808,01	14,54
808,18	-5,12
808,36	6,76
808,54	-2,25
808,71	1,02
808,89	43,62
809,07	-19,87
809,24	28,06
809,42	15,97
809,60	-10,65
809,77	9,01
809,95	-5,94
810,13	19,46
810,30	43,62
810,48	28,06
810,66	-0,20
810,83	32,97
811,01	22,32
811,18	-1,23
811,36	18,23
811,54	41,98
811,71	-12,70
811,89	27,03
812,07	4,51
812,24	20,89
812,42	8,19
812,59	13,72
812,77	35,43
812,95	43,62
813,12	29,70
813,30	27,03
813,48	25,39
813,65	32,36
813,83	30,72
814,00	21,71
814,18	24,78
814,36	10,85
814,53	20,68
814,71	26,62
814,88	6,96
815,06	30,51
815,24	7,37
815,41	26,01
815,59	64,51
815,76	25,60
815,94	46,28
816,12	10,04
816,29	40,34
816,47	21,91
816,64	23,55
816,82	42,19
817,00	42,80
817,17	-2,87
817,35	18,02
817,52	5,32
817,70	35,02
817,87	16,18
818,05	41,37
818,23	56,32
818,40	4,30
818,58	8,60
818,75	29,49
818,93	17,82
819,10	36,45
819,28	30,51
819,46	10,04
819,63	3,89
819,81	24,78
819,98	30,72
820,16	0,82
820,33	-19,46
820,51	13,31
820,68	18,64
820,86	20,89
821,03	22,12
821,21	39,94
821,39	39,12
821,56	17,20
821,74	12,08
821,91	9,22
822,09	24,78
822,26	-0,82
822,44	18,64
822,61	18,43
822,79	34,41
822,96	18,23
823,14	8,60
823,31	-2,05
823,49	6,96
823,66	31,74
823,84	6,35
824,01	5,53
824,19	5,12
824,36	29,90
824,54	47,51
824,71	4,30
824,89	-8,19
825,06	16,18
825,24	48,74
825,41	60,62
825,59	15,97
825,76	65,94
825,94	9,83
826,11	5,53
826,29	20,89
826,46	19,66
826,64	12,70
826,81	53,45
826,99	13,72
827,16	38,50
827,34	-5,32
827,51	25,80
827,69	16,18
827,86	30,51
828,04	19,87
828,21	5,12
828,39	31,54
828,56	36,86
828,74	15,56
828,91	14,13
829,09	37,07
829,26	3,89
829,43	26,42
829,61	29,70
829,78	11,67
829,96	0,82
830,13	23,76
830,31	28,06
830,48	59,60
830,66	8,60
830,83	19,05
831,01	52,63
831,18	27,03
831,35	29,90
831,53	18,23
831,70	14,13
831,88	45,67
832,05	25,19
832,23	-10,04
832,40	18,64
832,57	20,89
832,75	22,73
832,92	24,17
833,10	39,12
833,27	11,26
833,45	-18,23
833,62	41,37
833,79	12,70
833,97	12,08
834,14	4,71
834,32	55,50
834,49	23,76
834,66	45,26
834,84	41,16
835,01	47,51
835,19	21,50
835,36	19,87
835,53	27,24
835,71	17,20
835,88	17,00
836,06	22,32
836,23	36,04
836,40	7,17
836,58	40,34
836,75	22,94
836,93	17,61
837,10	2,87
837,27	37,89
837,45	22,12
837,62	-6,35
837,79	12,70
837,97	46,49
838,14	-14,34
838,32	46,49
838,49	28,06
838,66	51,40
838,84	53,25
839,01	25,19
839,18	41,57
839,36	0,41
839,53	17,41
839,70	32,77
839,88	37,07
840,05	31,95
840,23	15,56
840,40	12,49
840,57	24,78
840,75	8,40
840,92	-0,00
841,09	35,84
841,27	26,83
841,44	-5,94
841,61	12,90
841,79	28,06
841,96	18,84
842,13	15,77
842,31	28,06
842,48	38,09
842,65	31,74
842,83	24,58
843,00	54,48
843,17	21,50
843,35	5,53
843,52	53,45
843,69	21,30
843,86	27,24
844,04	26,01
844,21	13,93
844,38	41,98
844,56	23,96
844,73	21,09
844,90	9,83
845,08	39,53
845,25	-8,81
845,42	28,88
845,60	31,33
845,77	24,37
845,94	13,11
846,11	28,47
846,29	7,58
846,46	24,78
846,63	33,38
846,81	41,57
846,98	32,36
847,15	10,04
847,32	33,18
847,50	14,75
847,67	-6,35
847,84	14,95
848,01	30,31
848,19	26,21
848,36	23,76
848,53	6,35
848,71	13,72
848,88	34,20
849,05	43,83
849,22	37,07
849,40	35,43
849,57	14,95
849,74	19,66
849,91	-7,37
850,09	12,90
850,26	6,55
850,43	40,34
850,60	-9,42
850,78	10,65
850,95	25,39
851,12	38,09
851,29	57,75
851,47	68,61
851,64	50,99
851,81	20,27
851,98	24,78
852,15	26,21
852,33	16,79
852,50	44,03
852,67	26,01
852,84	21,30
853,02	10,85
853,19	24,99
853,36	-2,66
853,53	33,79
853,70	39,53
853,88	49,77
854,05	36,66
854,22	46,90
854,39	39,53
854,56	36,66
854,74	8,40
854,91	30,72
855,08	14,95
855,25	15,77
855,42	16,59
855,60	43,62
855,77	29,08
855,94	27,24
856,11	0,41
856,28	35,43
856,46	16,79
856,63	25,60
856,80	27,85
856,97	19,25
857,14	-0,41
857,31	12,29
857,49	12,29
857,66	27,24
857,83	22,32
858,00	36,86
858,17	15,97
858,34	9,01
858,52	59,19
858,69	4,51
858,86	45,26
859,03	14,13
859,20	50,79
859,37	24,37
859,55	29,70
859,72	22,53
859,89	17,82
860,06	24,37
860,23	14,13
860,40	12,49
860,57	44,85
860,75	-0,61
860,92	55,91
861,09	20,89
861,26	0,82
861,43	10,04
861,60	53,04
861,77	23,14
861,95	25,80
862,12	45,46
862,29	27,03
862,46	62,05
862,63	36,86
862,80	42,60
862,97	48,13
863,14	39,53
863,31	33,38
863,49	24,58
863,66	54,48
863,83	9,22
864,00	36,04
864,17	17,82
864,34	30,51
864,51	44,65
864,68	57,96
864,85	35,02
865,02	59,19
865,20	59,39
865,37	12,90
865,54	9,22
865,71	31,95
865,88	53,25
866,05	12,90
866,22	49,77
866,39	54,89
866,56	14,54
866,73	42,60
866,90	10,44
867,07	27,85
867,25	20,68
867,42	41,16
867,59	77,21
867,76	19,87
867,93	44,65
868,10	41,78
868,27	64,51
868,44	39,32
868,61	4,92
868,78	17,00
868,95	44,44
869,12	33,59
869,29	40,96
869,46	68,81
869,63	47,51
869,80	16,79
869,97	1,43
870,14	4,92
870,32	39,53
870,49	-11,67
870,66	50,58
870,83	29,49
871,00	41,57
871,17	7,99
871,34	21,50
871,51	46,49
871,68	23,76
871,85	26,42
872,02	35,84
872,19	69,02
872,36	51,40
872,53	59,60
872,70	21,91
872,87	33,59
873,04	33,59
873,21	30,92
873,38	34,20
873,55	58,78
873,72	10,65
873,89	51,81
874,06	36,25
874,23	42,19
874,40	59,39
874,57	38,30
874,74	8,40
874,91	7,58
875,08	5,94
875,25	58,16
875,42	17,41
875,59	6,96
875,76	47,51
875,93	31,33
876,10	22,53
876,27	21,09
876,44	-0,61
876,61	30,92
876,78	32,36
876,95	18,43
877,12	34,61
877,29	46,28
877,46	17,41
877,62	39,73
877,79	27,85
877,96	32,36
878,13	29,70
878,30	53,45
878,47	14,13
878,64	-3,07
878,81	60,42
878,98	33,38
879,15	31,33
879,32	49,36
879,49	15,36
879,66	43,01
879,83	11,88
880,00	49,15
880,17	36,25
880,34	14,13
880,51	54,07
880,67	64,72
880,84	20,48
881,01	26,42
881,18	33,18
881,35	34,20
881,52	32,36
881,69	-1,43
881,86	78,85
882,03	30,11
882,20	46,49
882,37	24,17
882,54	39,94
882,70	35,43
882,87	50,99
883,04	64,92
883,21	13,52
883,38	37,07
883,55	56,32
883,72	30,72
883,89	29,29
884,06	9,63
884,23	54,27
884,39	11,47
884,56	31,95
884,73	49,77
884,90	73,73
885,07	51,81
885,24	45,46
885,41	27,85
885,58	54,27
885,74	6,35
885,91	42,19
886,08	63,90
886,25	27,44
886,42	27,44
886,59	57,14
886,76	17,00
886,93	24,78
887,09	44,85
887,26	22,32
887,43	27,03
887,60	35,63
887,77	52,63
887,94	24,58
888,10	57,55
888,27	40,34
888,44	33,79
888,61	32,56
888,78	6,55
888,95	33,38
889,12	44,65
889,28	20,68
889,45	45,06
889,62	42,19
889,79	18,02
889,96	64,51
890,13	52,84
890,29	26,83
890,46	45,46
890,63	18,64
890,80	56,11
890,97	34,41
891,13	15,15
891,30	22,12
891,47	18,64
891,64	23,14
891,81	38,91
891,98	20,89
892,14	50,99
892,31	38,91
892,48	39,12
892,65	31,54
892,82	26,83
892,98	19,25
893,15	32,36
893,32	17,82
>>>>>End Processed Spectral Data<<<<<
