SpectraSuite Datei
++++++++++++++++++++++++++++++++++++
Datum: Tue Dec 10 15:09:23 CET 2019
Benutzer: Lichtquellen1
Dark-Spektrum vorhanden: Ja
Referenz-Spektrum vorhanden: Nein
Zahl der probierten Teilspektren: 1
Spektrometer: USB4F05832
Integrationszeit (usec): 100000 (USB4F05832)
Spektren Durchschnitt berechnet: 10 (USB4F05832)
Boxcar Glättung: 0 (USB4F05832)
Dunkelstromkorrektur: Nein (USB4F05832)
Puls/Lampe aktiviert: Nein (USB4F05832)
Correct for Detector Non-linearity: Nein (USB4F05832)
Streulichtkorrektur: Nein (USB4F05832)
Anzahl Pixel in verarbeitetem Spektrum: 3648
>>>>>Begin Processed Spectral Data<<<<<
177,54	23,35
177,75	23,35
177,97	23,35
178,19	-12,29
178,41	20,48
178,63	58,16
178,85	9,01
179,07	34,41
179,29	35,02
179,51	29,29
179,73	62,46
179,95	21,50
180,17	23,55
180,39	34,20
180,61	59,19
180,83	32,56
181,05	14,13
181,27	34,41
181,49	38,50
181,71	35,43
181,92	28,26
182,14	62,46
182,36	28,06
182,58	24,58
182,80	24,99
183,02	69,84
183,24	43,21
183,46	28,26
183,68	45,06
183,90	39,12
184,12	25,19
184,34	55,30
184,56	37,27
184,78	31,74
185,00	58,98
185,21	33,59
185,43	6,96
185,65	13,72
185,87	62,05
186,09	40,96
186,31	52,63
186,53	64,92
186,75	47,31
186,97	45,06
187,19	33,59
187,41	-17,20
187,63	49,15
187,84	27,44
188,06	13,72
188,28	25,39
188,50	66,76
188,72	28,47
188,94	36,25
189,16	47,51
189,38	43,42
189,60	29,29
189,82	11,88
190,03	5,73
190,25	35,02
190,47	56,11
190,69	-8,60
190,91	21,91
191,13	44,65
191,35	48,74
191,57	25,39
191,79	40,55
192,01	24,37
192,22	41,16
192,44	47,51
192,66	27,85
192,88	50,79
193,10	22,94
193,32	51,61
193,54	49,15
193,76	31,54
193,98	8,60
194,19	38,09
194,41	21,30
194,63	36,45
194,85	45,06
195,07	44,03
195,29	33,38
195,51	40,75
195,73	55,50
195,94	28,67
196,16	39,53
196,38	18,64
196,60	26,83
196,82	14,54
197,04	19,46
197,26	49,56
197,48	28,88
197,69	45,26
197,91	10,65
198,13	28,67
198,35	49,36
198,57	29,49
198,79	26,21
199,01	43,01
199,22	67,17
199,44	49,56
199,66	1,64
199,88	15,97
200,10	37,48
200,32	34,41
200,54	19,05
200,75	33,79
200,97	54,68
201,19	36,45
201,41	42,19
201,63	46,08
201,85	66,15
202,06	48,13
202,28	2,66
202,50	-4,30
202,72	29,08
202,94	38,71
203,16	21,09
203,38	41,78
203,59	15,77
203,81	40,55
204,03	45,46
204,25	27,03
204,47	8,81
204,69	52,84
204,90	23,76
205,12	51,61
205,34	27,85
205,56	39,12
205,78	43,83
206,00	47,31
206,21	53,86
206,43	49,77
206,65	15,77
206,87	35,23
207,09	34,20
207,30	45,46
207,52	40,96
207,74	-6,55
207,96	27,03
208,18	36,66
208,40	23,96
208,61	61,23
208,83	65,13
209,05	29,29
209,27	31,33
209,49	44,03
209,70	38,30
209,92	59,19
210,14	42,19
210,36	55,09
210,58	71,06
210,79	46,08
211,01	32,15
211,23	40,34
211,45	37,27
211,67	3,28
211,88	22,32
212,10	70,86
212,32	23,35
212,54	20,27
212,76	32,15
212,97	60,21
213,19	48,33
213,41	30,92
213,63	29,70
213,85	1,23
214,06	30,11
214,28	27,24
214,50	49,56
214,72	15,77
214,94	21,91
215,15	66,15
215,37	47,92
215,59	55,50
215,81	38,91
216,02	17,20
216,24	43,62
216,46	50,58
216,68	42,19
216,90	40,96
217,11	47,31
217,33	22,32
217,55	31,95
217,77	57,96
217,98	28,88
218,20	33,18
218,42	37,68
218,64	20,89
218,85	38,09
219,07	19,87
219,29	39,94
219,51	61,64
219,73	39,94
219,94	20,48
220,16	30,92
220,38	35,43
220,60	20,27
220,81	-1,84
221,03	3,89
221,25	37,48
221,47	34,41
221,68	34,82
221,90	32,56
222,12	54,89
222,34	41,78
222,55	31,95
222,77	12,29
222,99	22,94
223,21	9,22
223,42	41,37
223,64	35,43
223,86	-2,87
224,08	44,03
224,29	64,92
224,51	29,90
224,73	53,25
224,94	42,80
225,16	47,51
225,38	33,79
225,60	16,79
225,81	29,90
226,03	34,41
226,25	28,26
226,47	17,61
226,68	36,66
226,90	8,81
227,12	51,40
227,33	21,09
227,55	45,87
227,77	40,34
227,99	26,83
228,20	40,14
228,42	61,44
228,64	6,55
228,86	40,75
229,07	46,90
229,29	32,77
229,51	0,61
229,72	24,58
229,94	36,25
230,16	40,75
230,38	34,41
230,59	42,39
230,81	17,20
231,03	30,51
231,24	-4,10
231,46	36,86
231,68	16,18
231,89	12,70
232,11	47,92
232,33	60,62
232,55	49,36
232,76	49,15
232,98	20,27
233,20	14,13
233,41	20,89
233,63	47,92
233,85	30,11
234,06	23,35
234,28	34,82
234,50	45,46
234,71	15,36
234,93	40,75
235,15	37,68
235,37	-5,53
235,58	32,97
235,80	21,09
236,02	57,75
236,23	14,34
236,45	30,31
236,67	20,48
236,88	18,64
237,10	37,27
237,32	49,36
237,53	43,21
237,75	20,07
237,97	29,49
238,18	56,52
238,40	45,06
238,62	21,30
238,83	37,68
239,05	17,61
239,27	51,20
239,48	44,65
239,70	26,21
239,92	31,74
240,13	40,14
240,35	39,32
240,57	46,69
240,78	22,53
241,00	39,12
241,22	22,12
241,43	26,21
241,65	2,46
241,87	31,13
242,08	57,34
242,30	29,90
242,52	36,86
242,73	45,26
242,95	27,65
243,16	32,97
243,38	26,83
243,60	60,21
243,81	72,09
244,03	46,08
244,25	51,61
244,46	15,36
244,68	33,38
244,90	38,71
245,11	19,46
245,33	27,65
245,55	46,69
245,76	54,89
245,98	31,95
246,19	59,39
246,41	22,12
246,63	33,38
246,84	21,30
247,06	37,89
247,28	31,54
247,49	18,23
247,71	36,04
247,92	33,79
248,14	21,91
248,36	42,80
248,57	43,62
248,79	16,59
249,01	53,45
249,22	15,97
249,44	27,24
249,65	37,07
249,87	39,53
250,09	19,25
250,30	39,94
250,52	8,81
250,73	54,68
250,95	22,12
251,17	46,08
251,38	18,23
251,60	37,89
251,81	40,96
252,03	88,88
252,25	39,73
252,46	53,04
252,68	48,74
252,89	36,45
253,11	14,95
253,33	60,82
253,54	50,99
253,76	25,60
253,97	51,20
254,19	7,99
254,41	53,25
254,62	78,85
254,84	39,73
255,05	32,77
255,27	37,27
255,49	34,20
255,70	15,15
255,92	0,41
256,13	24,58
256,35	34,82
256,56	20,68
256,78	48,54
257,00	13,93
257,21	12,29
257,43	61,03
257,64	11,88
257,86	38,91
258,08	32,36
258,29	39,12
258,51	3,89
258,72	43,62
258,94	31,95
259,15	26,01
259,37	19,05
259,59	32,36
259,80	29,70
260,02	38,30
260,23	19,46
260,45	28,88
260,66	-1,43
260,88	13,31
261,09	43,83
261,31	26,62
261,53	51,20
261,74	5,12
261,96	28,26
262,17	-13,31
262,39	51,61
262,60	51,81
262,82	35,84
263,03	32,77
263,25	40,34
263,46	36,45
263,68	40,96
263,90	29,08
264,11	18,64
264,33	36,86
264,54	54,27
264,76	27,65
264,97	40,34
265,19	31,33
265,40	54,27
265,62	39,12
265,83	27,03
266,05	27,24
266,26	23,14
266,48	39,94
266,70	64,51
266,91	48,13
267,13	34,82
267,34	17,00
267,56	17,61
267,77	53,86
267,99	32,56
268,20	8,19
268,42	42,60
268,63	36,86
268,85	50,38
269,06	42,39
269,28	35,63
269,49	7,99
269,71	34,61
269,92	9,01
270,14	13,11
270,35	29,08
270,57	28,88
270,78	58,57
271,00	30,92
271,21	44,03
271,43	45,67
271,64	-1,84
271,86	61,85
272,07	28,06
272,29	42,60
272,50	50,18
272,72	0,20
272,93	22,53
273,15	60,82
273,36	18,43
273,58	24,78
273,79	64,31
274,01	24,58
274,22	29,90
274,44	36,66
274,65	17,00
274,87	15,77
275,08	6,14
275,30	54,89
275,51	65,13
275,73	44,24
275,94	36,45
276,16	32,97
276,37	55,70
276,59	68,61
276,80	45,67
277,02	43,01
277,23	0,61
277,45	28,88
277,66	22,94
277,88	10,44
278,09	77,41
278,30	15,97
278,52	9,63
278,73	26,01
278,95	45,87
279,16	4,10
279,38	37,27
279,59	29,90
279,81	-4,51
280,02	70,04
280,24	37,27
280,45	58,16
280,67	54,07
280,88	55,50
281,09	36,45
281,31	37,68
281,52	5,53
281,74	50,38
281,95	70,86
282,17	28,06
282,38	49,36
282,60	47,51
282,81	24,37
283,02	-15,15
283,24	14,13
283,45	46,08
283,67	22,94
283,88	23,96
284,10	60,01
284,31	47,51
284,53	-3,48
284,74	-0,41
284,95	45,46
285,17	32,77
285,38	5,73
285,60	48,95
285,81	23,96
286,03	15,36
286,24	18,64
286,45	56,93
286,67	37,07
286,88	60,62
287,10	-11,47
287,31	20,48
287,53	29,90
287,74	13,72
287,95	17,00
288,17	18,02
288,38	43,21
288,60	35,43
288,81	43,01
289,02	48,13
289,24	38,50
289,45	47,51
289,67	36,45
289,88	21,30
290,10	48,54
290,31	9,63
290,52	20,27
290,74	20,48
290,95	31,13
291,17	42,39
291,38	11,88
291,59	58,16
291,81	39,12
292,02	42,39
292,24	31,54
292,45	11,47
292,66	42,39
292,88	35,84
293,09	78,23
293,31	36,86
293,52	51,20
293,73	27,03
293,95	46,08
294,16	48,13
294,37	-13,72
294,59	30,51
294,80	48,33
295,02	26,62
295,23	32,56
295,44	36,45
295,66	32,15
295,87	34,61
296,09	55,30
296,30	44,24
296,51	20,89
296,73	15,15
296,94	46,69
297,15	31,74
297,37	40,96
297,58	43,01
297,79	43,62
298,01	31,54
298,22	11,67
298,44	21,30
298,65	44,24
298,86	11,88
299,08	10,85
299,29	56,93
299,50	24,99
299,72	26,62
299,93	38,71
300,14	32,36
300,36	32,15
300,57	26,01
300,79	26,21
301,00	-2,46
301,21	13,31
301,43	25,39
301,64	4,10
301,85	32,15
302,07	7,58
302,28	30,51
302,49	33,38
302,71	-3,48
302,92	56,52
303,13	27,65
303,35	47,10
303,56	34,00
303,77	21,50
303,99	31,95
304,20	26,01
304,41	17,20
304,63	50,99
304,84	32,77
305,05	69,22
305,27	11,88
305,48	38,30
305,69	43,83
305,91	27,65
306,12	5,53
306,33	16,59
306,55	55,30
306,76	15,97
306,97	39,94
307,19	33,18
307,40	30,92
307,61	51,40
307,82	36,45
308,04	64,10
308,25	26,01
308,46	4,51
308,68	43,01
308,89	31,13
309,10	21,91
309,32	17,41
309,53	43,83
309,74	18,02
309,96	37,89
310,17	32,15
310,38	44,24
310,59	-5,73
310,81	18,43
311,02	41,98
311,23	58,37
311,45	31,74
311,66	25,39
311,87	-9,63
312,09	33,38
312,30	28,67
312,51	42,19
312,72	39,32
312,94	41,16
313,15	42,80
313,36	23,35
313,58	17,00
313,79	37,68
314,00	38,09
314,21	34,41
314,43	40,34
314,64	28,67
314,85	26,01
315,06	9,83
315,28	46,90
315,49	67,38
315,70	14,95
315,92	58,98
316,13	38,71
316,34	14,34
316,55	32,15
316,77	37,48
316,98	50,38
317,19	5,12
317,40	52,02
317,62	9,63
317,83	57,34
318,04	39,32
318,25	28,67
318,47	28,47
318,68	24,99
318,89	61,03
319,11	47,92
319,32	32,97
319,53	57,34
319,74	36,86
319,96	36,66
320,17	40,34
320,38	39,12
320,59	37,48
320,81	38,30
321,02	33,18
321,23	20,07
321,44	48,13
321,65	27,85
321,87	18,84
322,08	35,43
322,29	42,19
322,50	-2,66
322,72	48,74
322,93	50,58
323,14	34,20
323,35	26,01
323,57	28,88
323,78	34,20
323,99	4,92
324,20	32,56
324,41	22,32
324,63	38,50
324,84	17,41
325,05	45,26
325,26	58,37
325,48	43,01
325,69	2,05
325,90	29,29
326,11	37,27
326,32	45,06
326,54	24,37
326,75	20,48
326,96	19,66
327,17	48,54
327,39	31,13
327,60	44,85
327,81	62,67
328,02	55,30
328,23	54,27
328,45	46,49
328,66	36,04
328,87	63,28
329,08	17,61
329,29	23,96
329,51	17,20
329,72	1,84
329,93	10,65
330,14	47,92
330,35	38,30
330,56	8,60
330,78	50,58
330,99	42,39
331,20	47,72
331,41	52,02
331,62	34,00
331,84	17,41
332,05	44,85
332,26	28,26
332,47	49,77
332,68	21,09
332,90	22,73
333,11	16,79
333,32	21,09
333,53	17,41
333,74	26,62
333,95	34,61
334,17	33,38
334,38	42,19
334,59	19,87
334,80	11,88
335,01	49,97
335,22	31,33
335,44	13,72
335,65	19,66
335,86	39,12
336,07	28,26
336,28	36,86
336,49	11,47
336,71	37,27
336,92	67,58
337,13	24,99
337,34	40,75
337,55	22,73
337,76	36,25
337,97	33,18
338,19	44,03
338,40	6,35
338,61	42,39
338,82	53,66
339,03	43,42
339,24	26,62
339,45	33,18
339,67	33,79
339,88	26,01
340,09	31,33
340,30	34,20
340,51	31,95
340,72	15,56
340,93	45,67
341,15	21,71
341,36	52,63
341,57	27,24
341,78	27,85
341,99	6,35
342,20	27,65
342,41	64,10
342,62	53,04
342,84	25,39
343,05	24,78
343,26	40,55
343,47	36,04
343,68	44,44
343,89	16,18
344,10	33,38
344,31	25,80
344,53	10,85
344,74	24,58
344,95	15,15
345,16	-5,73
345,37	29,90
345,58	48,54
345,79	31,13
346,00	33,59
346,21	27,44
346,42	9,83
346,64	27,03
346,85	63,90
347,06	19,05
347,27	5,53
347,48	54,68
347,69	65,94
347,90	63,49
348,11	36,86
348,32	34,82
348,53	43,01
348,75	48,13
348,96	41,57
349,17	43,21
349,38	2,25
349,59	45,06
349,80	12,90
350,01	47,72
350,22	12,70
350,43	15,56
350,64	20,89
350,85	44,44
351,06	29,29
351,28	27,85
351,49	23,76
351,70	16,38
351,91	22,94
352,12	34,00
352,33	0,20
352,54	27,44
352,75	58,78
352,96	12,70
353,17	5,73
353,38	52,02
353,59	32,36
353,80	61,85
354,01	29,08
354,22	44,24
354,44	3,48
354,65	55,50
354,86	17,82
355,07	25,39
355,28	38,71
355,49	43,62
355,70	37,27
355,91	36,25
356,12	14,75
356,33	13,11
356,54	42,80
356,75	48,95
356,96	38,30
357,17	19,25
357,38	68,20
357,59	26,83
357,80	39,12
358,01	53,04
358,22	10,85
358,43	49,36
358,64	38,09
358,85	46,28
359,07	40,55
359,28	63,28
359,49	14,54
359,70	28,06
359,91	45,46
360,12	27,24
360,33	10,44
360,54	2,25
360,75	52,84
360,96	69,43
361,17	20,07
361,38	25,60
361,59	58,98
361,80	13,31
362,01	28,88
362,22	21,50
362,43	36,86
362,64	28,47
362,85	38,30
363,06	28,26
363,27	22,12
363,48	77,00
363,69	28,67
363,90	27,85
364,11	19,25
364,32	60,21
364,53	6,55
364,74	31,54
364,95	30,72
365,16	32,77
365,37	28,88
365,58	3,28
365,79	30,11
366,00	35,43
366,21	23,76
366,42	35,02
366,63	43,83
366,84	35,02
367,05	33,59
367,26	39,12
367,47	35,43
367,68	49,36
367,89	32,15
368,10	58,37
368,31	41,98
368,52	43,62
368,73	28,88
368,94	45,06
369,15	60,82
369,36	17,20
369,57	15,77
369,78	45,87
369,99	26,21
370,20	40,14
370,40	33,38
370,61	64,92
370,82	35,23
371,03	49,36
371,24	15,56
371,45	70,86
371,66	34,61
371,87	35,23
372,08	43,83
372,29	10,65
372,50	10,65
372,71	12,70
372,92	45,26
373,13	13,93
373,34	43,42
373,55	47,92
373,76	35,84
373,97	37,07
374,18	34,00
374,39	30,31
374,60	61,85
374,81	-1,02
375,01	35,43
375,22	24,58
375,43	34,00
375,64	47,10
375,85	32,15
376,06	61,03
376,27	37,68
376,48	39,32
376,69	22,12
376,90	33,59
377,11	14,75
377,32	55,70
377,53	29,29
377,74	39,73
377,94	28,26
378,15	45,06
378,36	41,37
378,57	43,83
378,78	47,72
378,99	51,61
379,20	47,92
379,41	45,26
379,62	7,78
379,83	20,89
380,04	33,59
380,25	45,87
380,45	50,18
380,66	32,77
380,87	44,65
381,08	24,17
381,29	52,84
381,50	53,45
381,71	32,15
381,92	29,49
382,13	66,15
382,34	58,98
382,55	41,16
382,75	70,25
382,96	26,01
383,17	39,32
383,38	52,84
383,59	55,50
383,80	57,96
384,01	64,92
384,22	35,63
384,43	57,75
384,63	52,84
384,84	17,61
385,05	34,20
385,26	34,61
385,47	42,60
385,68	57,96
385,89	40,55
386,10	24,78
386,30	38,91
386,51	47,72
386,72	39,32
386,93	15,56
387,14	28,06
387,35	51,20
387,56	21,91
387,77	22,32
387,97	39,53
388,18	47,10
388,39	56,93
388,60	42,80
388,81	57,96
389,02	68,61
389,23	18,43
389,43	34,20
389,64	68,61
389,85	62,05
390,06	22,53
390,27	55,30
390,48	26,62
390,69	15,36
390,89	50,79
391,10	75,57
391,31	34,61
391,52	70,65
391,73	40,14
391,94	35,02
392,14	55,91
392,35	46,90
392,56	51,40
392,77	21,09
392,98	54,07
393,19	45,46
393,39	59,80
393,60	73,11
393,81	61,03
394,02	60,82
394,23	44,24
394,44	71,06
394,64	57,75
394,85	75,77
395,06	63,28
395,27	22,32
395,48	64,10
395,69	58,78
395,89	39,73
396,10	26,83
396,31	58,57
396,52	43,42
396,73	50,18
396,93	56,11
397,14	61,44
397,35	95,23
397,56	44,24
397,77	32,77
397,97	46,49
398,18	53,04
398,39	81,51
398,60	46,90
398,81	48,54
399,01	70,86
399,22	65,94
399,43	65,54
399,64	84,58
399,85	85,20
400,05	54,48
400,26	49,77
400,47	72,70
400,68	84,58
400,89	74,55
401,09	94,41
401,30	82,74
401,51	90,73
401,72	72,50
401,93	100,15
402,13	61,44
402,34	105,68
402,55	107,11
402,76	118,58
402,96	98,51
403,17	76,18
403,38	96,46
403,59	90,52
403,80	103,22
404,00	108,95
404,21	95,44
404,42	97,07
404,63	91,54
404,83	102,19
405,04	143,36
405,25	107,31
405,46	152,16
405,66	141,51
405,87	111,41
406,08	87,65
406,29	94,21
406,49	128,61
406,70	112,43
406,91	88,68
407,12	90,93
407,32	94,00
407,53	123,90
407,74	107,11
407,95	132,50
408,15	114,07
408,36	99,53
408,57	120,22
408,78	95,84
408,98	131,27
409,19	146,43
409,40	125,13
409,61	97,48
409,81	125,95
410,02	108,34
410,23	105,68
410,44	146,63
410,64	131,68
410,85	146,22
411,06	111,61
411,26	142,74
411,47	136,19
411,68	147,86
411,89	108,54
412,09	121,65
412,30	136,19
412,51	153,19
412,72	158,92
412,92	144,18
413,13	134,35
413,34	156,26
413,54	157,90
413,75	131,89
413,96	161,58
414,17	143,97
414,37	138,65
414,58	148,68
414,79	146,02
414,99	153,60
415,20	146,84
415,41	195,99
415,61	137,83
415,82	163,84
416,03	174,69
416,24	157,90
416,44	160,36
416,65	149,30
416,86	150,53
417,06	196,20
417,27	149,30
417,48	163,43
417,68	187,39
417,89	178,17
418,10	180,22
418,30	166,70
418,51	169,78
418,72	141,51
418,92	173,05
419,13	182,47
419,34	167,93
419,55	174,08
419,75	193,12
419,96	180,63
420,17	161,79
420,37	187,39
420,58	192,10
420,79	138,85
420,99	164,86
421,20	175,31
421,41	174,69
421,61	174,28
421,82	185,14
422,03	185,75
422,23	189,23
422,44	199,06
422,65	192,51
422,85	185,34
423,06	203,57
423,26	224,25
423,47	192,92
423,68	203,16
423,88	203,98
424,09	219,34
424,30	207,05
424,50	196,20
424,71	224,25
424,92	216,27
425,12	222,00
425,33	198,86
425,54	207,46
425,74	216,88
425,95	238,18
426,15	246,78
426,36	204,80
426,57	224,46
426,77	222,82
426,98	223,64
427,19	195,58
427,39	223,02
427,60	202,13
427,81	240,64
428,01	231,01
428,22	215,45
428,42	205,41
428,63	243,30
428,84	205,82
429,04	233,26
429,25	227,32
429,45	219,13
429,66	247,80
429,87	229,37
430,07	274,22
430,28	254,77
430,49	226,10
430,69	225,07
430,90	275,66
431,10	242,48
431,31	243,30
431,52	252,92
431,72	236,54
431,93	212,58
432,13	258,45
432,34	278,73
432,55	238,59
432,75	260,09
432,96	302,48
433,16	300,03
433,37	316,21
433,58	333,00
433,78	271,15
433,99	306,99
434,19	330,75
434,40	311,29
434,60	348,56
434,81	352,46
435,02	326,24
435,22	380,31
435,43	328,08
435,63	351,64
435,84	385,63
436,05	344,26
436,25	344,47
436,46	352,25
436,66	387,27
436,87	367,82
437,07	409,59
437,28	414,30
437,48	423,52
437,69	443,39
437,90	444,41
438,10	426,18
438,31	445,84
438,51	484,14
438,72	462,84
438,92	442,77
439,13	488,65
439,34	523,05
439,54	533,91
439,75	495,40
439,95	551,11
440,16	556,02
440,36	532,68
440,57	544,55
440,77	604,15
440,98	580,19
441,18	566,06
441,39	572,20
441,60	622,79
441,80	611,52
442,01	623,81
442,21	651,25
442,42	602,51
442,62	649,62
442,83	653,51
443,03	646,75
443,24	715,56
443,44	704,71
443,65	719,66
443,85	738,70
444,06	778,23
444,26	756,72
444,47	748,53
444,67	795,84
444,88	789,08
445,09	792,77
445,29	832,50
445,50	852,77
445,70	865,88
445,91	858,71
446,11	901,52
446,32	916,88
446,52	926,30
446,73	982,41
446,93	946,37
447,14	988,35
447,34	1022,35
447,55	1024,39
447,75	1037,30
447,96	1121,26
448,16	1087,47
448,37	1118,40
448,57	1134,78
448,78	1168,16
448,98	1191,71
449,19	1194,58
449,39	1221,41
449,60	1296,16
449,80	1311,52
450,01	1320,12
450,21	1335,89
450,42	1395,08
450,62	1402,45
450,83	1423,75
451,03	1440,13
451,23	1476,38
451,44	1492,97
451,64	1553,59
451,85	1566,49
452,05	1638,78
452,26	1628,14
452,46	1680,56
452,67	1709,85
452,87	1721,73
453,08	1762,48
453,28	1730,33
453,49	1880,65
453,69	1865,49
453,90	1875,94
454,10	1990,42
454,31	1977,11
454,51	1995,75
454,71	2016,02
454,92	2027,49
455,12	2076,03
455,33	2209,14
455,53	2211,40
455,74	2335,71
455,94	2410,05
456,15	2426,43
456,35	2619,15
456,55	2539,48
456,76	2619,15
456,96	2796,50
457,17	2598,67
457,37	2923,48
457,58	2778,07
457,78	2965,46
457,99	2954,81
458,19	2810,84
458,39	3072,77
458,60	3141,79
458,80	3174,56
459,01	3089,16
459,21	3129,09
459,42	3234,77
459,62	3084,45
459,82	3474,17
460,03	3357,64
460,23	3463,52
460,44	3463,52
460,64	3316,69
460,85	3627,57
461,05	3396,15
461,25	3353,34
461,46	3710,92
461,66	3597,26
461,87	3492,61
462,07	3597,87
462,27	3513,50
462,48	3435,06
462,68	3612,21
462,89	3559,98
463,09	3551,18
463,29	3639,24
463,50	3652,14
463,70	3751,26
463,91	3619,17
464,11	3512,88
464,31	3677,33
464,52	3646,41
464,72	3768,26
464,93	3716,45
465,13	3848,34
465,33	3694,95
465,54	3520,25
465,74	3519,02
465,95	3621,01
466,15	3724,64
466,35	3659,72
466,56	3590,09
466,76	3595,00
466,96	3520,05
467,17	3475,61
467,37	3438,13
467,58	3419,90
467,78	3425,43
467,98	3448,78
468,19	3311,36
468,39	3376,90
468,59	3392,87
468,80	3329,18
469,00	3183,36
469,21	3173,74
469,41	3166,16
469,61	3295,18
469,82	3104,31
470,02	3178,45
470,22	3256,07
470,43	3085,67
470,63	2979,18
470,83	3166,77
471,04	3020,75
471,24	3015,02
471,45	2879,03
471,65	2908,73
471,85	2802,03
472,06	2852,41
472,26	2792,20
472,46	2769,88
472,67	2807,77
472,87	2714,99
473,07	2686,73
473,28	2578,39
473,48	2695,95
473,68	2677,92
473,89	2559,14
474,09	2558,53
474,29	2487,67
474,50	2531,08
474,70	2477,02
474,90	2474,97
475,11	2467,39
475,31	2411,89
475,51	2404,11
475,72	2414,15
475,92	2345,33
476,12	2279,80
476,33	2358,03
476,53	2286,35
476,73	2265,05
476,93	2240,48
477,14	2193,99
477,34	2189,89
477,54	2128,25
477,75	2213,44
477,95	2081,56
478,15	2103,47
478,36	2062,51
478,56	2123,13
478,76	2085,45
478,97	2068,65
479,17	2012,54
479,37	2037,52
479,57	1952,53
479,78	1987,35
479,98	1935,54
480,18	1969,74
480,39	1916,08
480,59	1900,51
480,79	1921,81
480,99	1843,58
481,20	1853,82
481,40	1854,03
481,60	1865,29
481,81	1822,69
482,01	1790,74
482,21	1781,53
482,41	1744,46
482,62	1729,10
482,82	1751,42
483,02	1693,26
483,23	1682,61
483,43	1696,74
483,63	1698,99
483,83	1672,17
484,04	1645,13
484,24	1625,47
484,44	1627,93
484,64	1563,83
484,85	1575,71
485,05	1547,45
485,25	1521,44
485,45	1535,36
485,66	1540,28
485,86	1464,30
486,06	1474,74
486,26	1496,66
486,47	1427,84
486,67	1401,43
486,87	1393,23
487,07	1381,76
487,28	1336,30
487,48	1316,84
487,68	1345,11
487,88	1310,29
488,09	1267,69
488,29	1272,61
488,49	1278,96
488,69	1244,76
488,90	1223,05
489,10	1189,87
489,30	1212,40
489,50	1243,32
489,71	1175,94
489,91	1184,95
490,11	1139,49
490,31	1193,15
490,52	1155,05
490,72	1133,55
490,92	1168,57
491,12	1131,91
491,32	1118,40
491,53	1116,76
491,73	1042,83
491,93	1087,47
492,13	1102,42
492,33	1073,34
492,54	1051,84
492,74	1078,05
492,94	1059,00
493,14	1063,92
493,35	991,42
493,55	966,03
493,75	1004,73
493,95	977,70
494,15	978,31
494,36	951,90
494,56	946,37
494,76	925,68
494,96	957,43
495,16	929,16
495,37	957,43
495,57	901,31
495,77	934,28
495,97	960,50
496,17	863,63
496,37	917,90
496,58	870,80
496,78	872,84
496,98	872,03
497,18	924,45
497,38	844,17
497,59	839,26
497,79	865,27
497,99	807,92
498,19	844,38
498,39	831,27
498,59	818,78
498,80	825,74
499,00	835,78
499,20	787,24
499,40	779,66
499,60	800,76
499,80	796,25
500,01	768,60
500,21	744,03
500,41	759,39
500,61	781,50
500,81	770,86
501,01	760,41
501,22	775,98
501,42	719,45
501,62	715,97
501,82	719,45
502,02	728,87
502,22	688,53
502,42	684,23
502,63	699,18
502,83	678,70
503,03	671,12
503,23	648,18
503,43	646,95
503,63	651,66
503,83	689,35
504,04	650,64
504,24	627,29
504,44	616,64
504,64	648,59
504,84	592,89
505,04	616,85
505,24	586,54
505,44	610,50
505,65	590,63
505,85	627,50
506,05	614,19
506,25	615,01
506,45	563,60
506,65	600,87
506,85	561,96
507,05	599,44
507,26	610,70
507,46	593,91
507,66	538,82
507,86	565,24
508,06	581,42
508,26	554,39
508,46	568,72
508,66	573,02
508,86	567,70
509,06	567,90
509,27	565,44
509,47	572,20
509,67	556,23
509,87	555,00
510,07	533,09
510,27	555,61
510,47	529,20
510,67	527,56
510,87	542,71
511,07	551,11
511,28	533,29
511,48	547,01
511,68	554,18
511,88	515,68
512,08	524,08
512,28	526,94
512,48	524,28
512,68	524,48
512,88	577,73
513,08	533,91
513,28	521,21
513,48	557,87
513,68	553,98
513,89	490,28
514,09	505,44
514,29	516,09
514,49	490,28
514,69	507,28
514,89	524,48
515,09	473,70
515,29	501,34
515,49	496,22
515,69	509,33
515,89	526,53
516,09	506,05
516,29	485,78
516,49	484,14
516,69	515,47
516,89	503,39
517,09	489,26
517,29	499,70
517,50	484,55
517,70	468,78
517,90	424,54
518,10	449,12
518,30	411,44
518,50	468,98
518,70	448,30
518,90	472,06
519,10	467,14
519,30	478,82
519,50	451,78
519,70	459,77
519,90	475,74
520,10	485,98
520,30	496,22
520,50	484,14
520,70	486,19
520,90	470,83
521,10	478,82
521,30	495,81
521,50	471,03
521,70	466,12
521,90	474,72
522,10	490,90
522,30	483,12
522,50	499,91
522,70	492,33
522,90	456,08
523,10	478,82
523,30	506,46
523,50	492,54
523,70	489,26
523,90	501,55
524,10	513,22
524,30	448,10
524,50	492,95
524,70	478,61
524,90	507,69
525,10	492,95
525,30	488,44
525,50	518,34
525,70	475,95
525,90	476,15
526,10	469,19
526,30	484,96
526,50	526,74
526,70	509,53
526,90	490,49
527,10	481,48
527,30	473,49
527,50	464,89
527,70	505,23
527,90	409,18
528,10	450,14
528,30	475,33
528,50	486,39
528,70	465,30
528,90	479,43
529,10	492,95
529,30	479,43
529,50	472,67
529,70	488,44
529,90	480,04
530,10	493,97
530,29	485,78
530,49	479,84
530,69	493,36
530,89	464,89
531,09	465,50
531,29	486,19
531,49	502,78
531,69	488,85
531,89	470,21
532,09	481,89
532,29	488,85
532,49	482,30
532,69	476,36
532,89	499,91
533,09	521,62
533,29	487,42
533,49	487,01
533,68	449,94
533,88	471,44
534,08	482,09
534,28	428,84
534,48	474,10
534,68	427,82
534,88	446,46
535,08	429,66
535,28	455,06
535,48	475,54
535,68	462,64
535,88	475,54
536,08	485,37
536,27	494,58
536,47	444,20
536,67	491,72
536,87	503,19
537,07	464,07
537,27	487,21
537,47	493,97
537,67	494,17
537,87	444,41
538,07	488,03
538,27	408,98
538,46	445,64
538,66	449,73
538,86	441,54
539,06	453,42
539,26	451,99
539,46	483,94
539,66	474,92
539,86	469,19
540,06	452,19
540,25	483,12
540,45	436,83
540,65	455,26
540,85	485,37
541,05	431,51
541,25	426,39
541,45	435,40
541,65	432,74
541,85	479,22
542,04	450,76
542,24	445,23
542,44	424,54
542,64	440,11
542,84	404,27
543,04	442,98
543,24	459,36
543,43	420,86
543,63	446,66
543,83	444,00
544,03	443,79
544,23	433,35
544,43	430,48
544,63	418,20
544,82	449,94
545,02	443,39
545,22	427,21
545,42	422,29
545,62	465,91
545,82	455,88
546,02	437,86
546,21	436,01
546,41	442,16
546,61	411,64
546,81	409,39
547,01	446,25
547,21	412,05
547,40	421,47
547,60	454,24
547,80	424,13
548,00	413,89
548,20	412,05
548,40	410,82
548,59	413,28
548,79	443,39
548,99	420,24
549,19	401,20
549,39	401,40
549,59	394,64
549,78	400,58
549,98	437,04
550,18	407,14
550,38	420,04
550,58	444,00
550,77	373,34
550,97	416,35
551,17	413,08
551,37	406,11
551,57	421,88
551,76	370,89
551,96	415,33
552,16	389,93
552,36	418,60
552,56	399,56
552,75	398,94
552,95	385,84
553,15	389,11
553,35	425,57
553,55	405,91
553,74	421,88
553,94	374,98
554,14	384,61
554,34	398,33
554,54	406,32
554,73	387,89
554,93	411,44
555,13	386,66
555,33	411,03
555,53	398,53
555,72	425,16
555,92	386,86
556,12	402,63
556,32	416,56
556,51	405,09
556,71	396,49
556,91	371,30
557,11	416,56
557,30	377,65
557,50	361,06
557,70	385,63
557,90	364,74
558,10	388,70
558,29	384,20
558,49	362,08
558,69	378,87
558,89	360,24
559,08	386,04
559,28	369,04
559,48	349,18
559,68	392,19
559,87	371,09
560,07	332,39
560,27	372,32
560,47	364,74
560,66	380,31
560,86	360,24
561,06	375,60
561,25	342,63
561,45	360,65
561,65	352,05
561,85	348,97
562,04	342,83
562,24	333,41
562,44	343,85
562,64	349,38
562,83	366,18
563,03	374,98
563,23	360,03
563,42	335,87
563,62	348,56
563,82	318,05
564,02	360,03
564,21	354,09
564,41	344,67
564,61	367,41
564,80	353,07
565,00	410,82
565,20	355,53
565,40	386,25
565,59	340,99
565,79	339,14
565,99	356,76
566,18	334,23
566,38	321,74
566,58	320,71
566,78	333,41
566,97	347,54
567,17	305,35
567,37	313,34
567,56	356,76
567,76	329,72
567,96	343,03
568,15	343,85
568,35	346,31
568,55	337,51
568,74	339,14
568,94	331,57
569,14	351,23
569,33	284,67
569,53	312,11
569,73	312,72
569,92	316,82
570,12	323,37
570,32	336,48
570,52	310,27
570,71	349,79
570,91	342,22
571,11	321,12
571,30	318,25
571,50	342,22
571,70	320,71
571,89	278,52
572,09	318,05
572,28	337,30
572,48	308,83
572,68	310,68
572,87	312,11
573,07	299,00
573,27	326,45
573,46	289,17
573,66	320,71
573,86	312,52
574,05	341,60
574,25	320,71
574,45	327,47
574,64	323,37
574,84	343,44
575,04	302,28
575,23	325,63
575,43	341,60
575,62	320,71
575,82	317,23
576,02	293,47
576,21	291,22
576,41	303,71
576,61	293,68
576,80	289,79
577,00	285,69
577,19	309,45
577,39	303,71
577,59	309,45
577,78	339,55
577,98	317,03
578,18	335,05
578,37	313,13
578,57	329,31
578,76	308,83
578,96	299,82
579,16	274,63
579,35	259,68
579,55	297,77
579,74	321,94
579,94	278,11
580,14	306,99
580,33	305,97
580,53	315,39
580,72	309,86
580,92	321,74
581,12	294,50
581,31	308,22
581,51	305,97
581,70	322,35
581,90	313,13
582,10	297,98
582,29	304,33
582,49	320,51
582,68	330,34
582,88	308,63
583,07	313,75
583,27	344,47
583,47	367,20
583,66	301,26
583,86	315,59
584,05	276,27
584,25	301,46
584,44	320,10
584,64	348,15
584,84	280,37
585,03	314,16
585,23	278,73
585,42	338,94
585,62	338,94
585,81	275,86
586,01	330,54
586,20	319,07
586,40	338,12
586,60	302,08
586,79	318,05
586,99	321,74
587,18	318,87
587,38	294,29
587,57	304,12
587,77	308,83
587,96	310,88
588,16	301,46
588,35	327,88
588,55	338,94
588,75	313,75
588,94	324,81
589,14	312,52
589,33	303,71
589,53	287,13
589,72	266,03
589,92	291,22
590,11	278,93
590,31	271,77
590,50	282,21
590,70	279,55
590,89	295,11
591,09	264,39
591,28	298,18
591,48	262,14
591,67	266,24
591,87	291,63
592,06	286,51
592,26	260,09
592,45	288,76
592,65	280,98
592,84	308,22
593,04	286,51
593,23	283,44
593,43	300,85
593,62	303,71
593,82	278,52
594,01	287,13
594,21	268,90
594,40	255,59
594,60	294,50
594,79	296,55
594,99	268,49
595,18	254,56
595,38	265,01
595,57	265,83
595,77	291,22
595,96	285,90
596,16	281,80
596,35	291,02
596,55	292,04
596,74	282,41
596,94	279,34
597,13	275,66
597,33	251,08
597,52	265,21
597,72	292,86
597,91	249,65
598,11	281,80
598,30	233,26
598,50	245,55
598,69	250,67
598,88	280,78
599,08	223,43
599,27	259,07
599,47	256,20
599,66	288,35
599,86	278,73
600,05	256,00
600,25	235,31
600,44	256,00
600,64	241,46
600,83	301,87
601,02	272,79
601,22	269,92
601,41	218,11
601,61	238,59
601,80	252,92
602,00	288,97
602,19	252,51
602,38	214,42
602,58	245,76
602,77	225,48
602,97	249,65
603,16	268,28
603,36	235,31
603,55	252,51
603,74	216,27
603,94	254,15
604,13	276,68
604,33	238,38
604,52	237,56
604,72	231,42
604,91	224,05
605,10	187,80
605,30	228,55
605,49	225,48
605,69	218,72
605,88	241,25
606,07	228,55
606,27	216,06
606,46	236,54
606,66	237,77
606,85	223,02
607,04	172,23
607,24	227,73
607,43	214,42
607,63	224,05
607,82	212,37
608,01	182,27
608,21	170,60
608,40	177,35
608,60	199,27
608,79	182,27
608,98	185,55
609,18	221,59
609,37	236,75
609,57	182,06
609,76	206,44
609,95	198,24
610,15	181,65
610,34	212,58
610,53	147,86
610,73	159,13
610,92	208,48
611,11	221,39
611,31	199,27
611,50	215,86
611,70	214,01
611,89	206,23
612,08	208,69
612,28	215,45
612,47	152,57
612,66	162,40
612,86	188,00
613,05	162,40
613,24	198,04
613,44	150,12
613,63	171,62
613,82	177,56
614,02	202,34
614,21	185,55
614,41	167,52
614,60	180,63
614,79	175,72
614,99	169,37
615,18	179,40
615,37	197,01
615,57	185,14
615,76	185,75
615,95	183,91
616,15	153,19
616,34	177,56
616,53	175,72
616,73	169,16
616,92	175,92
617,11	160,77
617,30	198,86
617,50	153,60
617,69	148,89
617,88	175,31
618,08	164,25
618,27	189,85
618,46	152,37
618,66	149,91
618,85	151,55
619,04	153,19
619,24	175,10
619,43	160,77
619,62	164,66
619,82	157,90
620,01	149,09
620,20	180,84
620,39	147,45
620,59	164,25
620,78	136,19
620,97	137,01
621,17	133,53
621,36	142,74
621,55	153,60
621,74	170,80
621,94	153,39
622,13	155,44
622,32	171,01
622,52	152,37
622,71	145,82
622,90	161,18
623,09	123,29
623,29	146,84
623,48	122,47
623,67	157,49
623,86	172,44
624,06	131,89
624,25	132,09
624,44	144,59
624,64	172,03
624,83	125,54
625,02	155,65
625,21	103,42
625,41	123,49
625,60	128,61
625,79	135,37
625,98	119,60
626,18	128,61
626,37	126,97
626,56	98,10
626,75	178,79
626,95	132,30
627,14	122,47
627,33	143,97
627,52	114,07
627,72	158,72
627,91	128,41
628,10	114,48
628,29	103,63
628,49	107,31
628,68	154,21
628,87	104,24
629,06	112,43
629,25	96,05
629,45	131,07
629,64	131,48
629,83	93,59
630,02	126,56
630,22	98,10
630,41	129,02
630,60	141,51
630,79	94,62
630,98	120,22
631,18	106,29
631,37	98,10
631,56	80,08
631,75	118,17
631,94	90,32
632,14	132,30
632,33	94,82
632,52	114,89
632,71	134,76
632,90	96,87
633,10	117,35
633,29	135,17
633,48	125,75
633,67	94,21
633,86	82,33
634,06	115,92
634,25	82,53
634,44	125,95
634,63	98,71
634,82	91,34
635,02	86,63
635,21	95,03
635,40	91,13
635,59	113,46
635,78	106,70
635,97	76,39
636,17	124,52
636,36	127,79
636,55	107,72
636,74	99,12
636,93	119,60
637,12	127,59
637,32	112,84
637,51	79,67
637,70	133,53
637,89	124,72
638,08	83,15
638,27	115,92
638,47	98,51
638,66	112,64
638,85	74,96
639,04	114,07
639,23	106,90
639,42	135,78
639,62	113,87
639,81	85,40
640,00	104,24
640,19	115,51
640,38	120,83
640,57	92,98
640,76	79,67
640,95	106,08
641,15	79,26
641,34	54,07
641,53	112,84
641,72	89,70
641,91	77,00
642,10	96,66
642,29	91,54
642,49	105,06
642,68	72,50
642,87	82,53
643,06	118,78
643,25	96,46
643,44	93,59
643,63	72,29
643,82	74,34
644,01	103,01
644,21	50,18
644,40	99,33
644,59	79,87
644,78	74,14
644,97	71,88
645,16	46,28
645,35	70,86
645,54	73,73
645,73	107,72
645,92	87,65
646,12	108,34
646,31	92,57
646,50	89,29
646,69	89,91
646,88	57,96
647,07	102,60
647,26	63,49
647,45	70,04
647,64	82,53
647,83	68,20
648,02	84,58
648,22	86,42
648,41	57,75
648,60	75,77
648,79	45,46
648,98	96,66
649,17	102,81
649,36	34,61
649,55	50,58
649,74	63,69
649,93	74,75
650,12	48,54
650,31	99,12
650,50	40,75
650,69	86,42
650,88	90,52
651,08	77,82
651,27	98,10
651,46	67,17
651,65	60,21
651,84	78,23
652,03	83,76
652,22	51,20
652,41	67,17
652,60	81,92
652,79	63,69
652,98	36,04
653,17	53,86
653,36	66,56
653,55	64,92
653,74	33,59
653,93	84,17
654,12	96,87
654,31	66,15
654,50	66,56
654,69	64,72
654,88	62,67
655,07	70,65
655,26	43,01
655,45	72,70
655,64	72,91
655,83	38,71
656,02	66,56
656,21	68,20
656,40	68,40
656,59	51,20
656,78	61,03
656,97	79,46
657,17	27,44
657,36	63,90
657,55	64,10
657,74	41,37
657,93	58,16
658,12	56,73
658,31	66,35
658,50	88,88
658,69	35,02
658,87	56,93
659,06	48,95
659,25	56,93
659,44	57,96
659,63	78,85
659,82	83,97
660,01	65,13
660,20	105,27
660,39	74,75
660,58	57,55
660,77	74,55
660,96	27,65
661,15	35,02
661,34	64,31
661,53	44,44
661,72	50,99
661,91	45,87
662,10	76,59
662,29	58,37
662,48	58,57
662,67	48,33
662,86	75,57
663,05	17,41
663,24	47,10
663,43	49,97
663,62	53,86
663,81	52,02
664,00	19,66
664,19	52,02
664,38	36,66
664,57	74,75
664,76	86,83
664,94	40,55
665,13	48,54
665,32	9,83
665,51	46,28
665,70	52,02
665,89	21,71
666,08	52,43
666,27	16,38
666,46	39,94
666,65	54,89
666,84	61,64
667,03	40,75
667,22	37,27
667,41	38,71
667,60	34,20
667,78	44,85
667,97	51,20
668,16	37,48
668,35	57,14
668,54	34,82
668,73	88,88
668,92	72,09
669,11	56,52
669,30	40,96
669,49	33,38
669,68	20,07
669,86	35,23
670,05	44,03
670,24	41,98
670,43	18,02
670,62	64,51
670,81	45,67
671,00	36,25
671,19	46,69
671,38	36,45
671,57	35,63
671,75	21,71
671,94	19,87
672,13	48,54
672,32	24,17
672,51	49,15
672,70	69,02
672,89	64,72
673,08	27,03
673,26	16,18
673,45	46,28
673,64	24,37
673,83	61,23
674,02	49,36
674,21	27,85
674,40	14,54
674,59	31,95
674,77	45,67
674,96	25,60
675,15	37,48
675,34	31,74
675,53	78,85
675,72	57,14
675,91	3,89
676,09	17,20
676,28	67,99
676,47	30,92
676,66	22,32
676,85	59,60
677,04	1,02
677,22	17,41
677,41	-0,61
677,60	-8,81
677,79	8,81
677,98	16,59
678,17	28,88
678,36	30,51
678,54	-1,43
678,73	28,06
678,92	30,11
679,11	-3,69
679,30	30,31
679,48	36,25
679,67	24,99
679,86	4,92
680,05	45,06
680,24	-4,51
680,43	13,72
680,61	-16,18
680,80	2,87
680,99	-1,84
681,18	-5,94
681,37	7,99
681,55	2,87
681,74	24,99
681,93	24,17
682,12	21,50
682,31	52,43
682,49	24,99
682,68	20,68
682,87	32,36
683,06	15,56
683,25	3,07
683,43	8,81
683,62	-4,71
683,81	40,14
684,00	41,37
684,19	39,53
684,37	-3,07
684,56	18,84
684,75	17,61
684,94	-1,64
685,12	30,11
685,31	-20,48
685,50	24,78
685,69	7,99
685,88	21,91
686,06	-13,31
686,25	0,20
686,44	-2,05
686,63	10,85
686,81	37,07
687,00	4,10
687,19	4,51
687,38	16,38
687,56	27,44
687,75	-9,63
687,94	-3,28
688,13	-17,20
688,31	-18,43
688,50	8,81
688,69	13,11
688,88	5,94
689,06	-2,25
689,25	-9,42
689,44	41,78
689,63	4,92
689,81	29,49
690,00	25,60
690,19	-3,69
690,38	34,41
690,56	-10,65
690,75	22,32
690,94	10,04
691,13	-2,05
691,31	-1,23
691,50	-5,32
691,69	17,00
691,87	-21,09
692,06	-2,46
692,25	0,61
692,44	-17,82
692,62	-12,08
692,81	23,96
693,00	-15,56
693,18	26,42
693,37	-23,55
693,56	-30,51
693,75	-11,88
693,93	16,59
694,12	43,01
694,31	-5,53
694,49	6,35
694,68	5,53
694,87	-18,43
695,05	2,87
695,24	18,43
695,43	27,85
695,62	-12,70
695,80	5,12
695,99	-19,66
696,18	21,09
696,36	-17,61
696,55	7,99
696,74	-17,82
696,92	-9,83
697,11	-1,64
697,30	11,88
697,48	-10,85
697,67	-18,84
697,86	18,02
698,04	-2,46
698,23	-1,23
698,42	18,23
698,60	-21,91
698,79	-11,47
698,98	-2,66
699,16	-18,64
699,35	-16,79
699,54	-14,54
699,72	-32,97
699,91	-32,97
700,10	-10,04
700,28	-7,58
700,47	34,20
700,66	-8,60
700,84	-23,76
701,03	-2,87
701,21	19,25
701,40	-1,23
701,59	8,40
701,77	-10,04
701,96	6,96
702,15	-14,75
702,33	-18,64
702,52	-3,28
702,71	28,47
702,89	-18,23
703,08	-13,72
703,26	-21,91
703,45	-16,18
703,64	-2,05
703,82	-27,44
704,01	13,93
704,20	-23,96
704,38	4,51
704,57	-17,41
704,75	12,90
704,94	-9,22
705,13	-38,09
705,31	15,97
705,50	6,14
705,68	-26,01
705,87	-6,76
706,06	-22,53
706,24	-35,43
706,43	-33,59
706,61	-20,68
706,80	-11,67
706,99	-0,20
707,17	-32,15
707,36	3,07
707,54	-70,25
707,73	-1,23
707,92	-2,66
708,10	-10,85
708,29	-50,38
708,47	-14,95
708,66	-22,53
708,84	-8,19
709,03	-48,95
709,22	-38,09
709,40	-6,14
709,59	-45,87
709,77	-12,08
709,96	-51,61
710,14	-33,38
710,33	-43,01
710,52	-9,01
710,70	1,43
710,89	-3,69
711,07	-24,99
711,26	-11,06
711,44	-13,93
711,63	-46,69
711,81	6,76
712,00	-25,60
712,19	-0,00
712,37	-22,94
712,56	-47,51
712,74	-12,49
712,93	-15,97
713,11	-30,31
713,30	-49,77
713,48	-25,80
713,67	-32,15
713,85	-35,02
714,04	-32,15
714,22	-51,81
714,41	-64,92
714,59	29,08
714,78	3,89
714,97	-20,89
715,15	-25,19
715,34	-15,77
715,52	-23,55
715,71	12,08
715,89	-13,72
716,08	-66,97
716,26	-57,75
716,45	-33,38
716,63	-22,53
716,82	-44,24
717,00	-34,82
717,19	-18,64
717,37	-14,75
717,56	-26,62
717,74	-44,85
717,93	-25,39
718,11	-32,97
718,30	-21,30
718,48	-0,82
718,67	10,44
718,85	-12,29
719,04	-9,01
719,22	-0,61
719,41	-31,95
719,59	1,43
719,78	10,65
719,96	12,49
720,15	4,71
720,33	-44,44
720,52	-6,76
720,70	-36,45
720,88	-26,01
721,07	0,61
721,25	-9,63
721,44	-43,01
721,62	2,66
721,81	-28,88
721,99	-16,79
722,18	-33,59
722,36	-35,84
722,55	-4,92
722,73	-55,91
722,92	-13,52
723,10	-21,50
723,28	-17,00
723,47	-5,53
723,65	-41,16
723,84	-32,77
724,02	-0,20
724,21	-31,33
724,39	-5,32
724,58	-20,89
724,76	-16,59
724,94	-65,33
725,13	-15,15
725,31	-30,72
725,50	-15,77
725,68	-22,94
725,87	-7,37
726,05	2,66
726,23	-4,10
726,42	-4,30
726,60	-27,03
726,79	-35,43
726,97	-4,51
727,16	-13,52
727,34	-29,70
727,52	-27,24
727,71	-3,69
727,89	-5,32
728,08	-43,62
728,26	-13,31
728,44	0,61
728,63	-49,77
728,81	-52,02
729,00	-49,36
729,18	-14,54
729,36	-47,31
729,55	-23,55
729,73	10,65
729,92	-11,67
730,10	-1,43
730,28	-38,30
730,47	-14,13
730,65	-43,83
730,84	-37,27
731,02	-33,38
731,20	13,11
731,39	-32,15
731,57	-16,18
731,75	-20,89
731,94	-23,76
732,12	-24,78
732,31	-13,31
732,49	-4,92
732,67	-23,55
732,86	-26,62
733,04	-12,08
733,22	-15,36
733,41	-47,10
733,59	-27,44
733,78	-34,61
733,96	14,13
734,14	-18,84
734,33	-20,07
734,51	-34,20
734,69	-47,72
734,88	-6,96
735,06	-28,06
735,24	-19,05
735,43	1,23
735,61	-39,12
735,79	-38,30
735,98	-43,42
736,16	3,07
736,34	-4,10
736,53	-24,78
736,71	-47,10
736,89	-55,30
737,08	-0,61
737,26	-37,27
737,44	-26,21
737,63	-52,63
737,81	-31,33
737,99	-41,78
738,18	3,69
738,36	7,17
738,54	-29,49
738,73	-30,72
738,91	-24,37
739,09	16,79
739,28	-25,39
739,46	-30,72
739,64	-32,15
739,82	-21,71
740,01	2,46
740,19	6,76
740,37	-34,00
740,56	-31,74
740,74	-15,97
740,92	-21,30
741,11	-43,42
741,29	2,66
741,47	-2,87
741,65	-43,42
741,84	-9,01
742,02	-12,08
742,20	-27,44
742,39	-24,99
742,57	-20,48
742,75	-3,89
742,93	-14,95
743,12	-57,14
743,30	-29,90
743,48	-23,35
743,67	-7,99
743,85	-26,21
744,03	-34,41
744,21	-33,38
744,40	-33,18
744,58	3,07
744,76	-32,77
744,94	-27,24
745,13	-9,83
745,31	-10,24
745,49	-11,67
745,67	-23,35
745,86	-2,25
746,04	-18,64
746,22	-22,73
746,40	-45,26
746,59	-32,15
746,77	-12,70
746,95	8,19
747,13	-46,49
747,32	-38,30
747,50	-44,85
747,68	-29,29
747,86	6,14
748,05	-30,72
748,23	-17,82
748,41	-5,12
748,59	-53,25
748,77	-63,69
748,96	-34,61
749,14	-21,50
749,32	-32,97
749,50	-27,85
749,69	-25,39
749,87	4,10
750,05	-6,96
750,23	-37,27
750,41	-35,43
750,60	-32,36
750,78	-14,95
750,96	-21,91
751,14	-49,97
751,32	-42,60
751,51	-30,11
751,69	-35,23
751,87	-19,66
752,05	-42,60
752,23	-17,00
752,42	-31,33
752,60	-15,97
752,78	-3,69
752,96	-37,48
753,14	-13,11
753,33	-38,71
753,51	-37,07
753,69	-36,25
753,87	-53,45
754,05	-16,38
754,23	-16,59
754,42	-0,82
754,60	-11,88
754,78	-14,13
754,96	-6,55
755,14	-62,05
755,32	-33,59
755,51	-24,17
755,69	-11,06
755,87	-51,20
756,05	-38,09
756,23	-24,17
756,41	-29,29
756,60	-26,62
756,78	14,95
756,96	-17,61
757,14	-8,81
757,32	-32,56
757,50	-31,13
757,68	-45,26
757,87	-9,83
758,05	-38,91
758,23	-43,01
758,41	-35,02
758,59	2,87
758,77	-21,71
758,95	-26,01
759,14	1,23
759,32	6,14
759,50	-5,53
759,68	31,95
759,86	-4,10
760,04	1,02
760,22	15,15
760,40	11,47
760,59	24,17
760,77	27,65
760,95	19,66
761,13	34,20
761,31	40,55
761,49	32,36
761,67	37,48
761,85	36,45
762,03	44,03
762,22	14,75
762,40	21,30
762,58	0,82
762,76	8,81
762,94	-5,53
763,12	34,82
763,30	28,26
763,48	1,02
763,66	24,78
763,84	-4,51
764,02	25,60
764,21	15,36
764,39	21,30
764,57	43,01
764,75	4,30
764,93	12,90
765,11	11,67
765,29	16,18
765,47	-21,30
765,65	33,59
765,83	9,63
766,01	11,67
766,19	20,27
766,37	-34,61
766,56	18,64
766,74	-15,15
766,92	-25,39
767,10	13,72
767,28	-51,40
767,46	-51,81
767,64	-46,49
767,82	-55,91
768,00	10,04
768,18	-50,18
768,36	-12,49
768,54	-17,61
768,72	-53,45
768,90	-32,36
769,08	-36,25
769,26	-42,39
769,44	-39,94
769,62	-29,08
769,80	-14,54
769,98	-41,37
770,16	-18,64
770,34	-15,97
770,52	-33,79
770,71	-28,26
770,89	-34,82
771,07	-33,59
771,25	-11,06
771,43	-34,61
771,61	-27,03
771,79	-35,02
771,97	-66,56
772,15	-51,20
772,33	-43,01
772,51	-33,79
772,69	-6,35
772,87	-4,51
773,05	-45,26
773,23	-45,87
773,41	-53,86
773,59	-33,18
773,77	-31,54
773,95	-31,13
774,13	-54,68
774,31	-47,92
774,49	-20,07
774,67	2,46
774,85	-23,55
775,03	-31,74
775,21	-68,61
775,39	-46,90
775,57	-3,28
775,75	-34,00
775,93	-28,88
776,10	-65,53
776,28	-30,92
776,46	-39,12
776,64	-32,15
776,82	-19,05
777,00	206,84
777,18	-19,46
777,36	5,73
777,54	-43,21
777,72	-48,74
777,90	-34,20
778,08	-27,03
778,26	-5,94
778,44	-39,94
778,62	-1,64
778,80	-15,97
778,98	-17,20
779,16	-34,00
779,34	-41,98
779,52	-19,87
779,70	-20,89
779,88	-39,94
780,05	-20,68
780,23	-11,26
780,41	-12,49
780,59	-31,33
780,77	-21,30
780,95	-11,26
781,13	1,23
781,31	-49,97
781,49	-39,53
781,67	-36,66
781,85	-11,06
782,03	-2,66
782,21	-13,93
782,39	-24,17
782,56	-1,84
782,74	-35,43
782,92	-66,15
783,10	19,87
783,28	-10,24
783,46	-42,39
783,64	-10,44
783,82	4,71
784,00	-27,24
784,18	2,87
784,35	-9,22
784,53	-13,72
784,71	-2,25
784,89	-23,55
785,07	-20,89
785,25	-53,04
785,43	-17,00
785,61	-46,28
785,79	-31,74
785,96	-29,08
786,14	-4,10
786,32	-9,83
786,50	-5,12
786,68	-36,04
786,86	-21,09
787,04	-33,59
787,22	-22,73
787,39	-33,38
787,57	-6,55
787,75	1,43
787,93	-8,81
788,11	9,22
788,29	-24,37
788,47	-30,51
788,65	-30,72
788,82	-31,54
789,00	-0,41
789,18	5,94
789,36	-14,95
789,54	3,89
789,72	-27,85
789,89	-18,43
790,07	9,01
790,25	-46,69
790,43	1,23
790,61	-34,20
790,79	-6,76
790,96	8,40
791,14	-2,25
791,32	-28,47
791,50	-20,27
791,68	-21,09
791,86	-1,84
792,03	-16,59
792,21	-25,60
792,39	-7,78
792,57	-16,59
792,75	-14,75
792,93	-10,24
793,10	-8,81
793,28	-20,89
793,46	22,94
793,64	-14,75
793,82	-1,43
793,99	-10,65
794,17	-11,47
794,35	17,00
794,53	-8,81
794,71	-39,32
794,88	-33,18
795,06	-28,26
795,24	15,77
795,42	-22,12
795,60	-2,25
795,77	-15,97
795,95	-14,75
796,13	-9,83
796,31	2,05
796,49	-40,75
796,66	-3,07
796,84	-52,63
797,02	-16,18
797,20	2,66
797,37	-12,49
797,55	-40,55
797,73	6,35
797,91	-15,77
798,08	-0,41
798,26	-25,60
798,44	-21,50
798,62	-18,84
798,80	-9,63
798,97	-16,79
799,15	7,37
799,33	-27,85
799,51	13,72
799,68	-5,32
799,86	4,71
800,04	-0,61
800,22	-15,97
800,39	-15,15
800,57	-38,71
800,75	-29,49
800,93	-9,01
801,10	-24,58
801,28	-34,61
801,46	-33,59
801,63	-26,83
801,81	-20,89
801,99	8,19
802,17	12,29
802,34	-35,43
802,52	-15,56
802,70	9,63
802,88	8,60
803,05	-13,52
803,23	-22,32
803,41	-27,44
803,58	-28,67
803,76	23,96
803,94	-5,12
804,12	-6,76
804,29	17,20
804,47	3,69
804,65	-20,68
804,82	-0,61
805,00	-0,41
805,18	9,42
805,35	6,96
805,53	6,35
805,71	-22,32
805,89	12,08
806,06	-3,07
806,24	18,02
806,42	6,35
806,59	-18,64
806,77	-19,46
806,95	-16,79
807,12	-47,72
807,30	7,37
807,48	-41,78
807,65	-2,46
807,83	25,80
808,01	-45,67
808,18	-5,94
808,36	6,35
808,54	-9,22
808,71	-4,51
808,89	17,00
809,07	-33,38
809,24	-1,23
809,42	2,25
809,60	-2,66
809,77	-22,53
809,95	-9,63
810,13	-33,59
810,30	44,85
810,48	-0,20
810,66	-4,10
810,83	10,85
811,01	3,07
811,18	-3,89
811,36	1,64
811,54	-4,51
811,71	9,42
811,89	-6,14
812,07	-24,58
812,24	-9,22
812,42	13,93
812,59	11,88
812,77	21,09
812,95	27,65
813,12	-7,78
813,30	17,20
813,48	0,00
813,65	29,29
813,83	4,92
814,00	16,79
814,18	0,00
814,36	-4,92
814,53	5,94
814,71	51,40
814,88	2,87
815,06	-8,19
815,24	4,71
815,41	6,76
815,59	61,03
815,76	7,78
815,94	8,81
816,12	25,39
816,29	21,09
816,47	23,96
816,64	10,44
816,82	19,25
817,00	29,29
817,17	-14,34
817,35	12,49
817,52	-0,20
817,70	30,31
817,87	18,84
818,05	27,44
818,23	-8,60
818,40	-18,84
818,58	0,61
818,75	19,87
818,93	17,82
819,10	18,02
819,28	-2,46
819,46	-6,76
819,63	-10,04
819,81	30,11
819,98	26,42
820,16	18,02
820,33	-10,44
820,51	-10,65
820,68	14,54
820,86	26,01
821,03	6,35
821,21	4,30
821,39	0,82
821,56	9,42
821,74	4,71
821,91	11,47
822,09	17,82
822,26	-20,07
822,44	12,90
822,61	-5,12
822,79	16,79
822,96	23,14
823,14	18,02
823,31	-25,60
823,49	-28,47
823,66	14,54
823,84	8,60
824,01	-5,73
824,19	4,92
824,36	-8,40
824,54	35,23
824,71	9,63
824,89	-44,65
825,06	-27,65
825,24	21,71
825,41	22,32
825,59	41,98
825,76	2,46
825,94	-2,46
826,11	-7,78
826,29	25,39
826,46	17,61
826,64	-15,56
826,81	36,86
826,99	9,01
827,16	31,74
827,34	-4,10
827,51	-4,51
827,69	-4,71
827,86	-0,61
828,04	38,09
828,21	12,90
828,39	13,93
828,56	32,15
828,74	-0,00
828,91	13,11
829,09	42,80
829,26	-11,67
829,43	24,37
829,61	32,77
829,78	12,49
829,96	31,74
830,13	13,52
830,31	9,01
830,48	37,68
830,66	-8,60
830,83	22,53
831,01	26,42
831,18	34,00
831,35	32,97
831,53	2,46
831,70	5,12
831,88	40,14
832,05	-0,00
832,23	5,12
832,40	11,26
832,57	4,92
832,75	35,23
832,92	11,26
833,10	56,11
833,27	12,90
833,45	-34,00
833,62	17,20
833,79	12,08
833,97	-31,13
834,14	48,54
834,32	46,49
834,49	29,08
834,66	38,30
834,84	20,48
835,01	50,79
835,19	23,35
835,36	7,78
835,53	10,24
835,71	42,39
835,88	24,99
836,06	-5,94
836,23	16,18
836,40	-8,19
836,58	24,99
836,75	43,83
836,93	-14,13
837,10	7,99
837,27	6,14
837,45	5,94
837,62	10,85
837,79	11,67
837,97	22,32
838,14	-3,07
838,32	13,11
838,49	34,00
838,66	29,49
838,84	43,42
839,01	-1,43
839,18	22,53
839,36	-0,82
839,53	33,18
839,70	14,75
839,88	-21,30
840,05	17,41
840,23	12,70
840,40	-13,11
840,57	-2,87
840,75	25,39
840,92	3,48
841,09	18,64
841,27	3,89
841,44	-13,72
841,61	23,14
841,79	5,12
841,96	18,84
842,13	16,79
842,31	30,11
842,48	18,84
842,65	-6,14
842,83	15,97
843,00	13,52
843,17	20,89
843,35	6,96
843,52	40,14
843,69	8,60
843,86	-0,00
844,04	22,12
844,21	29,49
844,38	21,91
844,56	6,96
844,73	27,44
844,90	-6,76
845,08	-12,08
845,25	18,02
845,42	6,96
845,60	-2,87
845,77	27,85
845,94	-2,66
846,11	5,94
846,29	20,27
846,46	12,29
846,63	38,71
846,81	36,04
846,98	16,59
847,15	3,48
847,32	4,30
847,50	9,83
847,67	0,82
847,84	2,87
848,01	25,60
848,19	19,66
848,36	20,89
848,53	10,65
848,71	-3,48
848,88	44,65
849,05	26,83
849,22	17,00
849,40	15,36
849,57	22,12
849,74	9,01
849,91	5,53
850,09	23,14
850,26	4,51
850,43	25,80
850,60	7,17
850,78	10,04
850,95	14,13
851,12	13,93
851,29	26,21
851,47	28,88
851,64	1,23
851,81	-5,53
851,98	28,26
852,15	-4,51
852,33	-1,84
852,50	38,71
852,67	26,83
852,84	5,12
853,02	20,89
853,19	24,37
853,36	13,72
853,53	53,04
853,70	21,50
853,88	39,12
854,05	28,26
854,22	28,88
854,39	38,30
854,56	23,55
854,74	11,88
854,91	17,20
855,08	13,93
855,25	18,43
855,42	-18,43
855,60	2,46
855,77	1,43
855,94	23,14
856,11	49,97
856,28	43,83
856,46	12,29
856,63	50,18
856,80	-3,69
856,97	15,56
857,14	3,69
857,31	-26,21
857,49	-12,29
857,66	37,68
857,83	-0,82
858,00	37,68
858,17	0,41
858,34	10,65
858,52	61,64
858,69	25,19
858,86	5,53
859,03	15,97
859,20	31,54
859,37	-6,96
859,55	44,44
859,72	12,29
859,89	26,42
860,06	15,36
860,23	14,75
860,40	20,89
860,57	33,59
860,75	6,35
860,92	50,99
861,09	-6,55
861,26	-9,63
861,43	14,34
861,60	33,18
861,77	7,37
861,95	28,26
862,12	14,75
862,29	18,43
862,46	22,53
862,63	38,91
862,80	25,60
862,97	15,36
863,14	40,34
863,31	11,26
863,49	-3,69
863,66	44,24
863,83	22,94
864,00	3,07
864,17	12,90
864,34	44,85
864,51	51,40
864,68	54,48
864,85	40,55
865,02	67,99
865,20	62,05
865,37	-12,90
865,54	-18,84
865,71	-1,43
865,88	34,82
866,05	9,63
866,22	44,44
866,39	48,33
866,56	-6,96
866,73	27,03
866,90	22,94
867,07	19,87
867,25	29,08
867,42	30,92
867,59	52,43
867,76	11,47
867,93	18,64
868,10	29,90
868,27	40,96
868,44	31,13
868,61	27,44
868,78	13,72
868,95	49,56
869,12	18,23
869,29	20,07
869,46	25,39
869,63	62,26
869,80	-17,82
869,97	8,60
870,14	0,61
870,32	36,25
870,49	19,66
870,66	16,18
870,83	25,39
871,00	32,56
871,17	3,69
871,34	2,05
871,51	6,55
871,68	-3,28
871,85	10,04
872,02	8,40
872,19	18,64
872,36	35,84
872,53	49,36
872,70	36,25
872,87	46,08
873,04	13,52
873,21	24,37
873,38	46,49
873,55	41,37
873,72	3,48
873,89	30,92
874,06	16,38
874,23	34,00
874,40	42,60
874,57	47,51
874,74	22,53
874,91	-19,87
875,08	19,05
875,25	18,84
875,42	5,12
875,59	27,44
875,76	46,49
875,93	25,39
876,10	40,75
876,27	-11,67
876,44	-3,89
876,61	27,85
876,78	27,85
876,95	0,82
877,12	40,55
877,29	34,00
877,46	33,18
877,62	61,03
877,79	11,88
877,96	11,67
878,13	29,29
878,30	37,68
878,47	22,12
878,64	49,97
878,81	27,03
878,98	42,39
879,15	40,96
879,32	23,55
879,49	18,64
879,66	20,48
879,83	8,60
880,00	44,24
880,17	44,85
880,34	6,55
880,51	28,26
880,67	59,19
880,84	-4,71
881,01	39,73
881,18	27,24
881,35	12,70
881,52	32,56
881,69	8,19
881,86	40,75
882,03	49,97
882,20	24,78
882,37	12,29
882,54	38,71
882,70	13,52
882,87	31,13
883,04	39,12
883,21	7,58
883,38	33,38
883,55	30,92
883,72	1,43
883,89	39,73
884,06	-0,20
884,23	23,76
884,39	-22,73
884,56	16,79
884,73	26,01
884,90	15,77
885,07	61,03
885,24	23,96
885,41	15,77
885,58	38,71
885,74	37,68
885,91	31,95
886,08	22,73
886,25	10,24
886,42	38,71
886,59	33,79
886,76	1,23
886,93	18,64
887,09	48,54
887,26	28,67
887,43	11,26
887,60	21,91
887,77	30,72
887,94	15,97
888,10	26,62
888,27	44,03
888,44	60,82
888,61	24,99
888,78	30,11
888,95	26,62
889,12	48,95
889,28	45,87
889,45	8,19
889,62	51,81
889,79	33,59
889,96	60,42
890,13	44,85
890,29	32,15
890,46	10,44
890,63	40,75
890,80	44,65
890,97	38,30
891,13	11,88
891,30	12,08
891,47	43,42
891,64	17,20
891,81	20,89
891,98	28,06
892,14	40,96
892,31	61,85
892,48	19,66
892,65	47,10
892,82	42,80
892,98	22,53
893,15	29,70
893,32	21,09
>>>>>End Processed Spectral Data<<<<<
