SpectraSuite Datei
++++++++++++++++++++++++++++++++++++
Datum: Tue Dec 10 15:44:37 CET 2019
Benutzer: Lichtquellen1
Dark-Spektrum vorhanden: Ja
Referenz-Spektrum vorhanden: Nein
Zahl der probierten Teilspektren: 1
Spektrometer: USB4F05832
Integrationszeit (usec): 200000 (USB4F05832)
Spektren Durchschnitt berechnet: 20 (USB4F05832)
Boxcar Glättung: 0 (USB4F05832)
Dunkelstromkorrektur: Nein (USB4F05832)
Puls/Lampe aktiviert: Nein (USB4F05832)
Correct for Detector Non-linearity: Nein (USB4F05832)
Streulichtkorrektur: Nein (USB4F05832)
Anzahl Pixel in verarbeitetem Spektrum: 3648
>>>>>Begin Processed Spectral Data<<<<<
177,54	-2,15
177,75	-2,15
177,97	-2,15
178,19	4,20
178,41	-4,51
178,63	7,37
178,85	-3,89
179,07	-10,75
179,29	4,20
179,51	10,14
179,73	32,77
179,95	-5,12
180,17	-6,96
180,39	2,66
180,61	12,90
180,83	-2,46
181,05	24,17
181,27	27,03
181,49	22,83
181,71	32,56
181,92	29,08
182,14	38,71
182,36	19,25
182,58	32,15
182,80	13,11
183,02	18,64
183,24	33,48
183,46	26,52
183,68	2,46
183,90	6,35
184,12	7,07
184,34	20,79
184,56	15,77
184,78	2,66
185,00	31,13
185,21	26,73
185,43	22,73
185,65	3,58
185,87	9,52
186,09	25,09
186,31	5,84
186,53	18,53
186,75	8,91
186,97	19,76
187,19	44,03
187,41	15,36
187,63	12,60
187,84	10,55
188,06	25,50
188,28	28,98
188,50	7,17
188,72	20,48
188,94	15,97
189,16	23,35
189,38	39,83
189,60	3,79
189,82	29,49
190,03	28,36
190,25	11,26
190,47	33,18
190,69	14,85
190,91	3,38
191,13	32,67
191,35	4,10
191,57	15,36
191,79	29,39
192,01	19,66
192,22	8,29
192,44	22,22
192,66	12,80
192,88	2,36
193,10	20,89
193,32	33,38
193,54	27,24
193,76	47,10
193,98	31,13
194,19	1,64
194,41	33,79
194,63	23,76
194,85	17,82
195,07	30,00
195,29	13,21
195,51	17,41
195,73	29,08
195,94	23,35
196,16	34,10
196,38	25,60
196,60	2,66
196,82	5,53
197,04	-3,28
197,26	15,77
197,48	25,70
197,69	33,59
197,91	19,76
198,13	9,42
198,35	-2,36
198,57	22,12
198,79	16,18
199,01	21,09
199,22	9,42
199,44	17,10
199,66	16,28
199,88	18,74
200,10	47,10
200,32	35,74
200,54	34,92
200,75	17,82
200,97	15,97
201,19	2,97
201,41	17,82
201,63	25,80
201,85	-2,25
202,06	19,46
202,28	10,75
202,50	16,49
202,72	37,58
202,94	20,79
203,16	-6,45
203,38	25,70
203,59	26,42
203,81	24,27
204,03	21,09
204,25	28,77
204,47	-0,31
204,69	2,05
204,90	5,84
205,12	40,24
205,34	27,44
205,56	21,81
205,78	17,31
206,00	23,76
206,21	31,85
206,43	17,00
206,65	14,44
206,87	-3,07
207,09	32,97
207,30	28,16
207,52	30,62
207,74	14,03
207,96	25,70
208,18	25,19
208,40	14,34
208,61	22,83
208,83	34,92
209,05	-22,02
209,27	31,33
209,49	19,05
209,70	16,90
209,92	18,84
210,14	29,18
210,36	26,62
210,58	16,28
210,79	28,16
211,01	35,53
211,23	15,56
211,45	1,95
211,67	17,61
211,88	14,64
212,10	14,34
212,32	20,27
212,54	20,38
212,76	23,55
212,97	7,27
213,19	37,27
213,41	30,41
213,63	39,53
213,85	1,02
214,06	13,11
214,28	42,60
214,50	6,66
214,72	15,97
214,94	17,20
215,15	15,77
215,37	-3,69
215,59	2,46
215,81	32,26
216,02	4,81
216,24	30,00
216,46	28,98
216,68	31,64
216,90	11,67
217,11	6,96
217,33	13,52
217,55	27,34
217,77	46,18
217,98	20,07
218,20	36,04
218,42	11,67
218,64	21,71
218,85	39,01
219,07	22,22
219,29	22,02
219,51	8,70
219,73	20,27
219,94	24,99
220,16	27,34
220,38	13,82
220,60	14,44
220,81	19,15
221,03	12,90
221,25	20,99
221,47	27,24
221,68	15,15
221,90	18,74
222,12	-4,92
222,34	19,87
222,55	31,54
222,77	0,92
222,99	10,85
223,21	5,53
223,42	26,83
223,64	20,68
223,86	23,45
224,08	13,41
224,29	31,54
224,51	1,95
224,73	19,66
224,94	14,13
225,16	20,27
225,38	2,46
225,60	41,06
225,81	30,41
226,03	-0,61
226,25	12,19
226,47	33,07
226,68	42,09
226,90	39,83
227,12	36,56
227,33	17,10
227,55	15,46
227,77	1,23
227,99	27,44
228,20	32,67
228,42	17,00
228,64	35,94
228,86	24,47
229,07	32,05
229,29	30,51
229,51	42,60
229,72	28,77
229,94	41,16
230,16	12,19
230,38	6,14
230,59	31,54
230,81	35,63
231,03	15,15
231,24	12,19
231,46	29,49
231,68	14,34
231,89	21,30
232,11	9,83
232,33	18,23
232,55	18,33
232,76	3,58
232,98	21,81
233,20	-9,42
233,41	21,30
233,63	17,41
233,85	16,08
234,06	29,08
234,28	15,97
234,50	35,94
234,71	21,30
234,93	13,93
235,15	23,96
235,37	28,16
235,58	-0,10
235,80	45,16
236,02	30,92
236,23	-12,60
236,45	27,03
236,67	19,76
236,88	19,46
237,10	6,86
237,32	27,85
237,53	11,78
237,75	14,03
237,97	10,55
238,18	-0,51
238,40	20,79
238,62	15,67
238,83	31,85
239,05	27,24
239,27	14,13
239,48	9,32
239,70	19,46
239,92	15,46
240,13	21,40
240,35	44,24
240,57	30,82
240,78	24,88
241,00	8,70
241,22	34,41
241,43	18,23
241,65	15,77
241,87	26,01
242,08	14,85
242,30	21,71
242,52	14,85
242,73	22,12
242,95	-11,26
243,16	33,89
243,38	23,65
243,60	32,46
243,81	5,94
244,03	33,69
244,25	3,99
244,46	34,82
244,68	12,19
244,90	54,58
245,11	-2,97
245,33	31,23
245,55	20,48
245,76	30,31
245,98	15,56
246,19	27,95
246,41	24,88
246,63	13,82
246,84	25,70
247,06	9,32
247,28	17,41
247,49	32,05
247,71	55,09
247,92	35,84
248,14	7,68
248,36	-1,84
248,57	33,59
248,79	9,22
249,01	23,24
249,22	14,95
249,44	12,60
249,65	33,38
249,87	36,25
250,09	25,29
250,30	30,11
250,52	5,12
250,73	21,61
250,95	30,82
251,17	37,38
251,38	25,29
251,60	36,15
251,81	17,82
252,03	44,85
252,25	17,51
252,46	17,51
252,68	26,01
252,89	2,36
253,11	8,91
253,33	27,14
253,54	9,52
253,76	25,60
253,97	30,92
254,19	10,55
254,41	2,15
254,62	3,38
254,84	49,66
255,05	8,91
255,27	17,31
255,49	-2,25
255,70	50,89
255,92	5,63
256,13	32,26
256,35	14,13
256,56	5,84
256,78	44,54
257,00	46,59
257,21	27,55
257,43	28,67
257,64	27,55
257,86	27,24
258,08	3,69
258,29	12,80
258,51	19,76
258,72	30,92
258,94	20,89
259,15	29,08
259,37	1,95
259,59	9,83
259,80	26,01
260,02	25,39
260,23	20,38
260,45	19,35
260,66	22,73
260,88	-18,12
261,09	1,84
261,31	17,51
261,53	59,90
261,74	26,32
261,96	10,24
262,17	14,44
262,39	14,03
262,60	28,77
262,82	22,32
263,03	5,02
263,25	47,82
263,46	24,58
263,68	38,71
263,90	16,28
264,11	23,14
264,33	18,74
264,54	25,09
264,76	-6,96
264,97	23,35
265,19	13,93
265,40	17,20
265,62	7,37
265,83	30,82
266,05	24,47
266,26	21,71
266,48	26,52
266,70	15,15
266,91	22,32
267,13	42,60
267,34	11,98
267,56	26,73
267,77	38,50
267,99	17,71
268,20	21,91
268,42	6,45
268,63	16,69
268,85	18,53
269,06	24,17
269,28	8,40
269,49	43,01
269,71	12,90
269,92	2,05
270,14	27,55
270,35	27,34
270,57	35,12
270,78	58,06
271,00	40,65
271,21	45,46
271,43	31,85
271,64	26,42
271,86	25,29
272,07	30,72
272,29	29,29
272,50	31,13
272,72	30,62
272,93	18,43
273,15	54,27
273,36	52,84
273,58	31,64
273,79	34,92
274,01	-3,07
274,22	30,72
274,44	19,87
274,65	29,08
274,87	-2,36
275,08	4,10
275,30	40,55
275,51	46,59
275,73	-1,74
275,94	31,74
276,16	31,03
276,37	37,68
276,59	7,88
276,80	25,50
277,02	28,06
277,23	11,98
277,45	28,26
277,66	12,49
277,88	14,64
278,09	42,39
278,30	-5,22
278,52	24,78
278,73	12,19
278,95	32,26
279,16	23,14
279,38	18,33
279,59	18,43
279,81	14,13
280,02	22,32
280,24	39,83
280,45	42,80
280,67	22,83
280,88	12,49
281,09	12,70
281,31	33,18
281,52	52,33
281,74	29,49
281,95	40,34
282,17	-0,41
282,38	37,68
282,60	39,01
282,81	24,58
283,02	12,80
283,24	38,91
283,45	26,11
283,67	19,25
283,88	38,81
284,10	27,55
284,31	22,73
284,53	28,67
284,74	30,00
284,95	27,44
285,17	2,36
285,38	35,94
285,60	28,47
285,81	47,82
286,03	25,91
286,24	37,17
286,45	34,71
286,67	26,32
286,88	37,79
287,10	25,19
287,31	26,93
287,53	37,38
287,74	32,05
287,95	16,59
288,17	34,92
288,38	32,15
288,60	27,14
288,81	9,93
289,02	27,24
289,24	51,51
289,45	40,86
289,67	27,95
289,88	35,02
290,10	24,47
290,31	20,58
290,52	20,38
290,74	34,30
290,95	33,07
291,17	28,36
291,38	33,28
291,59	38,81
291,81	26,32
292,02	28,16
292,24	36,35
292,45	31,74
292,66	16,59
292,88	11,67
293,09	11,88
293,31	42,90
293,52	23,14
293,73	27,24
293,95	30,31
294,16	8,91
294,37	24,27
294,59	18,23
294,80	37,27
295,02	37,68
295,23	37,27
295,44	22,94
295,66	36,45
295,87	49,66
296,09	45,67
296,30	31,64
296,51	0,51
296,73	5,43
296,94	5,43
297,15	39,94
297,37	14,85
297,58	39,32
297,79	1,23
298,01	24,78
298,22	24,78
298,44	36,45
298,65	53,96
298,86	25,29
299,08	35,02
299,29	29,59
299,50	-1,43
299,72	27,24
299,93	-1,54
300,14	41,68
300,36	28,67
300,57	12,70
300,79	37,79
301,00	28,57
301,21	-0,20
301,43	56,93
301,64	11,88
301,85	28,47
302,07	55,70
302,28	17,61
302,49	24,78
302,71	39,53
302,92	21,20
303,13	34,00
303,35	26,62
303,56	53,25
303,77	17,41
303,99	7,88
304,20	9,22
304,41	34,51
304,63	8,91
304,84	31,74
305,05	26,42
305,27	12,60
305,48	14,95
305,69	32,05
305,91	31,74
306,12	40,14
306,33	18,53
306,55	25,91
306,76	-6,14
306,97	27,14
307,19	36,35
307,40	15,26
307,61	36,15
307,82	30,51
308,04	9,83
308,25	7,78
308,46	17,51
308,68	40,24
308,89	27,65
309,10	17,41
309,32	18,53
309,53	19,97
309,74	22,83
309,96	9,22
310,17	35,23
310,38	24,47
310,59	9,63
310,81	29,08
311,02	14,54
311,23	46,80
311,45	9,63
311,66	20,38
311,87	7,88
312,09	22,53
312,30	33,59
312,51	24,58
312,72	38,71
312,94	27,34
313,15	0,51
313,36	38,40
313,58	18,23
313,79	30,92
314,00	20,38
314,21	13,82
314,43	24,78
314,64	31,74
314,85	9,32
315,06	25,91
315,28	26,93
315,49	22,02
315,70	26,83
315,92	17,71
316,13	15,15
316,34	13,00
316,55	28,26
316,77	26,11
316,98	20,07
317,19	5,73
317,40	27,03
317,62	27,65
317,83	36,45
318,04	31,33
318,25	37,07
318,47	22,63
318,68	29,08
318,89	18,12
319,11	25,39
319,32	30,51
319,53	30,00
319,74	11,47
319,96	17,71
320,17	39,12
320,38	16,69
320,59	29,90
320,81	30,41
321,02	33,48
321,23	42,80
321,44	27,55
321,65	37,68
321,87	-7,68
322,08	32,26
322,29	33,07
322,50	27,44
322,72	15,87
322,93	26,21
323,14	26,73
323,35	34,00
323,57	8,09
323,78	3,28
323,99	41,68
324,20	33,38
324,41	11,98
324,63	0,20
324,84	6,35
325,05	35,12
325,26	49,15
325,48	31,95
325,69	33,79
325,90	12,19
326,11	37,89
326,32	-9,63
326,54	20,68
326,75	21,81
326,96	19,76
327,17	12,08
327,39	35,23
327,60	10,24
327,81	36,66
328,02	14,95
328,23	32,46
328,45	46,80
328,66	32,77
328,87	33,38
329,08	21,40
329,29	29,39
329,51	21,09
329,72	19,15
329,93	6,66
330,14	-0,41
330,35	48,84
330,56	39,22
330,78	48,02
330,99	21,30
331,20	48,33
331,41	33,28
331,62	50,18
331,84	101,27
332,05	228,04
332,26	355,42
332,47	562,07
332,68	791,54
332,90	1075,80
333,11	1223,46
333,32	1307,01
333,53	1257,25
333,74	1117,06
333,95	928,24
334,17	753,35
334,38	619,92
334,59	525,92
334,80	462,12
335,01	369,15
335,22	322,15
335,44	251,49
335,65	186,67
335,86	142,23
336,07	90,01
336,28	64,41
336,49	55,91
336,71	37,38
336,92	29,80
337,13	45,06
337,34	39,32
337,55	22,73
337,76	34,71
337,97	34,51
338,19	28,47
338,40	4,30
338,61	39,01
338,82	3,07
339,03	35,23
339,24	32,97
339,45	29,08
339,67	26,73
339,88	10,85
340,09	43,11
340,30	31,85
340,51	22,12
340,72	15,77
340,93	35,63
341,15	18,94
341,36	43,11
341,57	37,27
341,78	10,04
341,99	27,44
342,20	25,50
342,41	31,85
342,62	11,88
342,84	20,68
343,05	21,20
343,26	24,99
343,47	39,22
343,68	6,55
343,89	38,09
344,10	21,91
344,31	-1,74
344,53	35,12
344,74	8,81
344,95	16,38
345,16	4,81
345,37	23,76
345,58	39,01
345,79	41,06
346,00	42,50
346,21	12,90
346,42	10,04
346,64	34,61
346,85	34,92
347,06	14,44
347,27	37,07
347,48	26,62
347,69	24,88
347,90	23,04
348,11	-3,07
348,32	17,41
348,53	1,02
348,75	12,80
348,96	22,83
349,17	26,01
349,38	19,15
349,59	19,25
349,80	30,92
350,01	0,31
350,22	33,69
350,43	47,62
350,64	33,48
350,85	-6,55
351,06	32,26
351,28	37,07
351,49	32,05
351,70	18,74
351,91	19,66
352,12	23,65
352,33	33,79
352,54	39,63
352,75	13,00
352,96	21,09
353,17	11,06
353,38	5,94
353,59	18,23
353,80	33,07
354,01	42,90
354,22	28,88
354,44	32,36
354,65	10,24
354,86	3,89
355,07	26,93
355,28	12,90
355,49	57,14
355,70	14,64
355,91	35,74
356,12	19,97
356,33	33,89
356,54	38,91
356,75	35,84
356,96	19,87
357,17	10,04
357,38	21,09
357,59	26,62
357,80	16,18
358,01	14,44
358,22	30,72
358,43	24,78
358,64	29,18
358,85	21,30
359,07	41,06
359,28	29,70
359,49	39,42
359,70	42,19
359,91	28,26
360,12	33,79
360,33	42,29
360,54	40,24
360,75	59,90
360,96	15,05
361,17	18,84
361,38	32,67
361,59	36,56
361,80	38,09
362,01	11,26
362,22	39,32
362,43	17,71
362,64	32,97
362,85	16,79
363,06	27,85
363,27	36,35
363,48	34,51
363,69	31,74
363,90	35,74
364,11	31,85
364,32	47,72
364,53	38,71
364,74	17,82
364,95	25,09
365,16	13,00
365,37	20,68
365,58	16,90
365,79	27,85
366,00	30,51
366,21	25,80
366,42	29,80
366,63	35,23
366,84	32,05
367,05	38,09
367,26	34,82
367,47	20,99
367,68	47,10
367,89	29,08
368,10	37,58
368,31	37,68
368,52	13,82
368,73	34,71
368,94	21,20
369,15	19,46
369,36	17,92
369,57	39,73
369,78	49,36
369,99	23,24
370,20	38,50
370,40	18,02
370,61	23,65
370,82	23,45
371,03	42,70
371,24	30,92
371,45	7,58
371,66	27,95
371,87	23,14
372,08	39,73
372,29	52,33
372,50	29,59
372,71	27,14
372,92	44,54
373,13	26,73
373,34	48,43
373,55	23,14
373,76	37,68
373,97	30,72
374,18	17,10
374,39	33,89
374,60	20,27
374,81	25,80
375,01	3,58
375,22	17,71
375,43	44,03
375,64	17,82
375,85	37,48
376,06	34,10
376,27	23,45
376,48	34,82
376,69	5,22
376,90	37,89
377,11	44,34
377,32	37,38
377,53	30,31
377,74	40,65
377,94	47,62
378,15	39,94
378,36	27,95
378,57	44,95
378,78	9,52
378,99	28,67
379,20	32,87
379,41	67,48
379,62	46,90
379,83	37,58
380,04	38,81
380,25	36,45
380,45	28,26
380,66	29,18
380,87	42,09
381,08	35,94
381,29	24,78
381,50	25,91
381,71	28,67
381,92	25,70
382,13	40,75
382,34	24,68
382,55	23,55
382,75	47,62
382,96	48,84
383,17	19,76
383,38	60,72
383,59	20,99
383,80	34,41
384,01	35,02
384,22	23,55
384,43	40,24
384,63	12,60
384,84	31,13
385,05	22,63
385,26	40,14
385,47	42,19
385,68	26,62
385,89	43,21
386,10	36,15
386,30	28,57
386,51	35,43
386,72	31,54
386,93	29,08
387,14	18,02
387,35	16,79
387,56	24,47
387,77	28,47
387,97	36,04
388,18	36,76
388,39	23,96
388,60	33,07
388,81	48,23
389,02	14,95
389,23	21,71
389,43	30,62
389,64	30,72
389,85	43,42
390,06	23,55
390,27	27,14
390,48	14,13
390,69	41,98
390,89	14,03
391,10	34,82
391,31	24,78
391,52	43,21
391,73	34,51
391,94	41,78
392,14	24,17
392,35	39,32
392,56	16,28
392,77	38,09
392,98	26,93
393,19	54,07
393,39	43,11
393,60	47,00
393,81	18,74
394,02	43,52
394,23	41,16
394,44	35,63
394,64	36,45
394,85	27,44
395,06	49,87
395,27	39,22
395,48	31,33
395,69	30,51
395,89	46,80
396,10	40,04
396,31	41,16
396,52	45,87
396,73	42,19
396,93	49,15
397,14	46,80
397,35	37,68
397,56	9,42
397,77	50,79
397,97	50,28
398,18	36,76
398,39	40,04
398,60	27,85
398,81	26,21
399,01	35,63
399,22	52,74
399,43	25,50
399,64	43,93
399,85	18,53
400,05	55,30
400,26	16,69
400,47	54,99
400,68	50,38
400,89	64,82
401,09	29,70
401,30	37,58
401,51	33,48
401,72	45,98
401,93	33,59
402,13	39,53
402,34	10,96
402,55	25,39
402,76	33,89
402,96	30,11
403,17	40,34
403,38	48,54
403,59	22,12
403,80	20,38
404,00	37,99
404,21	38,81
404,42	15,46
404,63	36,56
404,83	36,45
405,04	37,79
405,25	52,02
405,46	55,30
405,66	39,83
405,87	50,99
406,08	41,98
406,29	27,44
406,49	36,15
406,70	75,57
406,91	40,45
407,12	66,76
407,32	24,37
407,53	54,89
407,74	47,82
407,95	49,46
408,15	25,80
408,36	27,95
408,57	39,42
408,78	44,34
408,98	46,49
409,19	39,32
409,40	42,09
409,61	28,57
409,81	67,28
410,02	5,53
410,23	40,86
410,44	40,75
410,64	45,77
410,85	66,66
411,06	15,46
411,26	40,04
411,47	54,37
411,68	67,17
411,89	50,38
412,09	39,63
412,30	44,03
412,51	53,76
412,72	47,72
412,92	36,56
413,13	42,70
413,34	37,58
413,54	46,80
413,75	31,64
413,96	44,95
414,17	62,26
414,37	53,04
414,58	58,67
414,79	40,14
414,99	32,46
415,20	65,64
415,41	42,39
415,61	44,44
415,82	48,02
416,03	25,09
416,24	42,19
416,44	39,01
416,65	40,55
416,86	52,84
417,06	48,95
417,27	66,05
417,48	88,37
417,68	102,19
417,89	68,40
418,10	70,45
418,30	88,98
418,51	79,67
418,72	62,46
418,92	47,72
419,13	70,45
419,34	61,64
419,55	41,98
419,75	70,14
419,96	57,34
420,17	75,37
420,37	83,97
420,58	63,69
420,79	44,13
420,99	98,81
421,20	85,91
421,41	108,54
421,61	106,60
421,82	99,02
422,03	115,30
422,23	86,22
422,44	118,17
422,65	93,69
422,85	86,73
423,06	55,91
423,26	80,79
423,47	84,79
423,68	70,25
423,88	47,21
424,09	46,18
424,30	65,84
424,50	42,19
424,71	42,19
424,92	54,27
425,12	46,39
425,33	31,44
425,54	44,65
425,74	60,93
425,95	66,56
426,15	41,78
426,36	38,19
426,57	46,80
426,77	45,57
426,98	57,86
427,19	65,53
427,39	57,75
427,60	65,02
427,81	63,79
428,01	78,54
428,22	57,34
428,42	85,50
428,63	91,13
428,84	54,37
429,04	52,33
429,25	74,14
429,45	65,13
429,66	66,25
429,87	44,24
430,07	77,41
430,28	42,29
430,49	66,97
430,69	38,60
430,90	34,61
431,10	39,01
431,31	98,40
431,52	53,14
431,72	56,93
431,93	58,16
432,13	76,18
432,34	45,16
432,55	58,67
432,75	57,14
432,96	40,75
433,16	46,08
433,37	64,00
433,58	68,30
433,78	54,07
433,99	48,33
434,19	57,24
434,40	39,32
434,60	56,32
434,81	66,05
435,02	73,32
435,22	50,38
435,43	59,49
435,63	50,18
435,84	67,28
436,05	80,79
436,25	37,68
436,46	65,13
436,66	44,34
436,87	60,52
437,07	51,30
437,28	26,42
437,48	64,00
437,69	51,20
437,90	69,12
438,10	10,14
438,31	41,98
438,51	55,09
438,72	56,63
438,92	39,73
439,13	31,13
439,34	45,06
439,54	60,82
439,75	24,06
439,95	7,68
440,16	59,29
440,36	66,46
440,57	65,54
440,77	51,61
440,98	26,83
441,18	22,53
441,39	59,49
441,60	51,61
441,80	77,72
442,01	67,48
442,21	48,95
442,42	56,93
442,62	41,78
442,83	64,51
443,03	50,58
443,24	41,06
443,44	43,83
443,65	48,74
443,85	55,30
444,06	46,18
444,26	46,59
444,47	34,71
444,67	48,23
444,88	34,30
445,09	42,70
445,29	52,84
445,50	52,53
445,70	52,53
445,91	35,63
446,11	36,04
446,32	44,85
446,52	46,18
446,73	53,35
446,93	36,66
447,14	45,98
447,34	13,11
447,55	40,34
447,75	53,04
447,96	53,04
448,16	25,50
448,37	27,03
448,57	43,01
448,78	43,62
448,98	52,12
449,19	55,30
449,39	59,49
449,60	41,27
449,80	17,71
450,01	63,28
450,21	60,11
450,42	39,94
450,62	61,95
450,83	33,69
451,03	58,78
451,23	58,16
451,44	68,61
451,64	54,48
451,85	36,35
452,05	53,76
452,26	56,83
452,46	68,40
452,67	83,35
452,87	63,08
453,08	54,78
453,28	74,44
453,49	53,96
453,69	52,12
453,90	52,74
454,10	63,69
454,31	43,11
454,51	45,77
454,71	60,42
454,92	72,60
455,12	43,52
455,33	51,20
455,53	30,82
455,74	29,08
455,94	70,65
456,15	64,92
456,35	73,73
456,55	66,05
456,76	42,09
456,96	72,70
457,17	39,63
457,37	60,72
457,58	71,68
457,78	47,51
457,99	47,92
458,19	66,35
458,39	44,44
458,60	64,72
458,80	60,11
459,01	48,84
459,21	47,62
459,42	37,99
459,62	46,49
459,82	51,92
460,03	65,02
460,23	61,23
460,44	43,83
460,64	61,23
460,85	52,53
461,05	42,80
461,25	50,07
461,46	49,05
461,66	53,14
461,87	36,45
462,07	47,92
462,27	70,45
462,48	49,56
462,68	63,28
462,89	44,03
463,09	168,55
463,29	64,31
463,50	66,76
463,70	17,82
463,91	37,58
464,11	48,02
464,31	51,61
464,52	83,35
464,72	83,15
464,93	71,37
465,13	63,69
465,33	39,83
465,54	59,60
465,74	55,30
465,95	45,06
466,15	32,46
466,35	71,06
466,56	53,45
466,76	71,17
466,96	51,81
467,17	54,17
467,37	62,16
467,58	105,37
467,78	85,50
467,98	134,04
468,19	140,90
468,39	111,00
468,59	117,14
468,80	118,68
469,00	103,32
469,21	119,09
469,41	86,53
469,61	94,00
469,82	92,16
470,02	68,71
470,22	64,41
470,43	76,29
470,63	43,93
470,83	57,55
471,04	71,78
471,24	65,13
471,45	68,30
471,65	79,36
471,85	55,40
472,06	82,12
472,26	50,79
472,46	65,23
472,67	45,67
472,87	52,53
473,07	50,38
473,28	67,89
473,48	71,78
473,68	50,99
473,89	57,04
474,09	64,51
474,29	58,78
474,50	49,15
474,70	74,14
474,90	79,77
475,11	83,05
475,31	60,93
475,51	67,17
475,72	50,28
475,92	81,41
476,12	53,35
476,33	95,54
476,53	87,55
476,73	89,29
476,93	75,57
477,14	75,26
477,34	81,61
477,54	75,67
477,75	78,85
477,95	83,66
478,15	64,72
478,36	62,77
478,56	74,55
478,76	87,86
478,97	84,68
479,17	48,84
479,37	88,78
479,57	66,97
479,78	72,29
479,98	54,37
480,18	83,35
480,39	89,91
480,59	78,33
480,79	41,88
480,99	94,41
481,20	57,55
481,40	68,20
481,60	53,76
481,81	72,09
482,01	73,11
482,21	65,94
482,41	71,58
482,62	69,53
482,82	61,03
483,02	73,52
483,23	93,69
483,43	80,08
483,63	65,64
483,83	64,82
484,04	68,91
484,24	87,04
484,44	61,34
484,64	76,59
484,85	59,29
485,05	86,73
485,25	78,95
485,45	81,82
485,66	89,70
485,86	69,12
486,06	79,15
486,26	50,38
486,47	71,27
486,67	86,94
486,87	67,17
487,07	72,81
487,28	69,02
487,48	71,17
487,68	48,84
487,88	74,24
488,09	79,05
488,29	68,50
488,49	68,50
488,69	90,93
488,90	74,75
489,10	67,69
489,30	81,92
489,50	84,07
489,71	66,97
489,91	94,41
490,11	71,68
490,31	78,95
490,52	86,83
490,72	76,90
490,92	74,55
491,12	67,79
491,32	95,13
491,53	71,99
491,73	89,50
491,93	82,33
492,13	75,88
492,33	83,97
492,54	79,26
492,74	84,38
492,94	65,84
493,14	75,77
493,35	71,17
493,55	78,85
493,75	95,64
493,95	73,52
494,15	76,18
494,36	82,12
494,56	90,01
494,76	85,50
494,96	88,57
495,16	75,37
495,37	100,45
495,57	105,27
495,77	84,68
495,97	106,19
496,17	67,17
496,37	86,32
496,58	97,48
496,78	70,96
496,98	68,81
497,18	76,90
497,38	89,50
497,59	91,13
497,79	76,49
497,99	76,49
498,19	126,77
498,39	200,60
498,59	250,77
498,80	399,87
499,00	532,57
499,20	667,54
499,40	739,11
499,60	742,90
499,80	737,58
500,01	632,72
500,21	559,20
500,41	469,80
500,61	416,66
500,81	330,23
501,01	331,05
501,22	304,23
501,42	266,13
501,62	256,82
501,82	204,49
502,02	206,54
502,22	180,84
502,42	166,81
502,63	111,92
502,83	147,15
503,03	105,57
503,23	92,36
503,43	93,90
503,63	96,56
503,83	100,66
504,04	101,68
504,24	70,45
504,44	110,39
504,64	97,38
504,84	98,40
505,04	45,77
505,24	50,18
505,44	70,65
505,65	89,09
505,85	70,65
506,05	86,42
506,25	90,21
506,45	78,23
506,65	87,14
506,85	83,05
507,05	124,93
507,26	65,02
507,46	76,80
507,66	91,13
507,86	87,55
508,06	74,34
508,26	74,96
508,46	73,21
508,66	79,87
508,86	120,52
509,06	79,05
509,27	92,06
509,47	71,17
509,67	72,40
509,87	76,18
510,07	94,82
510,27	81,20
510,47	85,40
510,67	85,61
510,87	92,36
511,07	92,77
511,28	104,86
511,48	87,86
511,68	104,75
511,88	66,66
512,08	81,20
512,28	84,99
512,48	66,05
512,68	70,96
512,88	107,93
513,08	52,22
513,28	75,37
513,48	72,50
513,68	82,02
513,89	83,35
514,09	55,50
514,29	91,03
514,49	55,30
514,69	71,27
514,89	80,69
515,09	96,15
515,29	93,59
515,49	112,13
515,69	162,51
515,89	214,32
516,09	251,29
516,29	236,13
516,49	271,87
516,69	241,76
516,89	239,10
517,09	212,17
517,29	167,01
517,50	170,70
517,70	157,69
517,90	150,32
518,10	132,30
518,30	110,49
518,50	126,15
518,70	111,20
518,90	112,13
519,10	80,49
519,30	101,48
519,50	100,25
519,70	93,59
519,90	95,03
520,10	76,08
520,30	77,52
520,50	107,83
520,70	94,00
520,90	101,07
521,10	89,60
521,30	83,25
521,50	91,85
521,70	61,44
521,90	77,00
522,10	82,84
522,30	103,93
522,50	85,09
522,70	81,00
522,90	98,51
523,10	73,42
523,30	97,38
523,50	69,63
523,70	89,19
523,90	105,16
524,10	85,61
524,30	80,49
524,50	90,62
524,70	116,94
524,90	65,23
525,10	72,60
525,30	72,70
525,50	73,62
525,70	88,98
525,90	89,80
526,10	80,89
526,30	105,78
526,50	65,13
526,70	84,07
526,90	98,81
527,10	51,10
527,30	82,23
527,50	107,42
527,70	98,71
527,90	103,93
528,10	92,77
528,30	91,95
528,50	85,20
528,70	81,82
528,90	83,15
529,10	71,17
529,30	101,68
529,50	65,02
529,70	87,96
529,90	91,75
530,10	90,83
530,29	81,61
530,49	97,38
530,69	81,51
530,89	70,86
531,09	99,74
531,29	85,20
531,49	67,07
531,69	77,11
531,89	102,81
532,09	88,98
532,29	78,23
532,49	107,11
532,69	75,57
532,89	51,40
533,09	73,32
533,29	51,30
533,49	96,05
533,68	83,45
533,88	70,35
534,08	83,76
534,28	93,39
534,48	81,51
534,68	96,77
534,88	78,44
535,08	90,62
535,28	105,47
535,48	76,59
535,68	81,92
535,88	96,46
536,08	87,24
536,27	97,28
536,47	107,62
536,67	87,04
536,87	85,61
537,07	92,77
537,27	76,70
537,47	83,15
537,67	84,27
537,87	99,22
538,07	74,44
538,27	103,01
538,46	98,10
538,66	85,50
538,86	65,43
539,06	85,30
539,26	91,34
539,46	107,42
539,66	85,61
539,86	96,77
540,06	86,01
540,25	87,35
540,45	98,20
540,65	103,32
540,85	114,69
541,05	79,67
541,25	72,40
541,45	92,67
541,65	102,81
541,85	82,12
542,04	101,58
542,24	97,69
542,44	85,09
542,64	101,68
542,84	88,06
543,04	88,88
543,24	105,06
543,43	97,59
543,63	115,20
543,83	78,74
544,03	71,06
544,23	127,08
544,43	99,43
544,63	114,89
544,82	101,68
545,02	121,44
545,22	101,48
545,42	103,42
545,62	78,23
545,82	113,15
546,02	95,74
546,21	105,47
546,41	116,43
546,61	89,91
546,81	93,59
547,01	104,14
547,21	116,63
547,40	128,41
547,60	110,90
547,80	79,36
548,00	69,12
548,20	96,15
548,40	110,80
548,59	107,62
548,79	106,90
548,99	115,40
549,19	120,11
549,39	125,34
549,59	75,77
549,78	105,68
549,98	113,76
550,18	107,11
550,38	91,13
550,58	105,57
550,77	105,37
550,97	106,90
551,17	104,45
551,37	107,31
551,57	105,27
551,76	143,56
551,96	119,40
552,16	117,35
552,36	114,89
552,56	107,52
552,75	90,73
552,95	118,88
553,15	126,56
553,35	129,94
553,55	117,04
553,74	156,06
553,94	113,87
554,14	125,13
554,34	120,01
554,54	142,74
554,73	138,14
554,93	121,34
555,13	157,49
555,33	105,27
555,53	125,85
555,72	126,26
555,92	141,72
556,12	138,85
556,32	150,22
556,51	119,50
556,71	135,58
556,91	158,72
557,11	165,37
557,30	174,79
557,50	159,74
557,70	161,99
557,90	167,11
558,10	166,70
558,29	174,18
558,49	197,73
558,69	196,09
558,89	166,50
559,08	194,56
559,28	200,60
559,48	193,43
559,68	194,76
559,87	208,69
560,07	204,59
560,27	195,99
560,47	214,22
560,66	233,37
560,86	212,17
561,06	236,44
561,25	222,92
561,45	253,23
561,65	246,06
561,85	244,53
562,04	250,77
562,24	270,13
562,44	223,64
562,64	272,99
562,83	257,94
563,03	253,64
563,23	272,18
563,42	298,70
563,62	269,41
563,82	310,16
564,02	286,72
564,21	317,33
564,41	299,11
564,61	298,18
564,80	304,64
565,00	299,31
565,20	316,00
565,40	336,48
565,59	338,73
565,79	343,14
565,99	362,08
566,18	364,33
566,38	355,94
566,58	384,40
566,78	394,75
566,97	387,89
567,17	411,13
567,37	416,86
567,56	418,71
567,76	457,82
567,96	524,48
568,15	750,89
568,35	1210,76
568,55	1810,30
568,74	2715,50
568,94	4088,46
569,14	5364,96
569,33	6332,22
569,53	6916,40
569,73	7218,99
569,92	6693,89
570,12	5870,30
570,32	5012,51
570,52	4202,43
570,71	3560,80
570,91	3101,65
571,11	2806,13
571,30	2470,98
571,50	2251,74
571,70	2102,96
571,89	1905,33
572,09	1754,90
572,28	1597,83
572,48	1466,35
572,68	1304,15
572,87	1184,34
573,07	1050,61
573,27	974,63
573,46	928,45
573,66	838,23
573,86	824,82
574,05	795,43
574,25	807,21
574,45	778,84
574,64	787,34
574,84	809,97
575,04	815,30
575,23	802,80
575,43	796,05
575,62	796,86
575,82	832,19
576,02	804,65
576,21	793,08
576,41	802,70
576,61	844,79
576,80	836,80
577,00	822,57
577,19	818,78
577,39	876,43
577,59	845,81
577,78	876,22
577,98	882,98
578,18	884,82
578,37	900,18
578,57	903,05
578,76	890,76
578,96	894,45
579,16	937,87
579,35	935,92
579,55	948,11
579,74	947,39
579,94	955,99
580,14	1043,75
580,33	1027,98
580,53	1026,13
580,72	1071,19
580,92	1079,07
581,12	1089,01
581,31	1123,11
581,51	1118,70
581,70	1166,42
581,90	1209,12
582,10	1217,82
582,29	1273,73
582,49	1319,40
582,68	1337,02
582,88	1357,19
583,07	1403,37
583,27	1456,00
583,47	1497,58
583,66	1539,66
583,86	1598,13
584,05	1653,43
584,25	1717,22
584,44	1818,80
584,64	1867,85
584,84	1944,96
585,03	2034,66
585,23	2175,66
585,42	2294,03
585,62	2468,72
585,81	2763,22
586,01	3060,48
586,20	3380,27
586,40	3841,27
586,60	4147,44
586,79	4462,22
586,99	4796,14
587,18	5011,07
587,38	5212,49
587,57	5398,96
587,77	5712,19
587,96	6191,83
588,16	6983,27
588,35	9431,92
588,55	22083,04
588,75	63807,23
588,94	63874,30
589,14	63939,33
589,33	63952,94
589,53	63826,69
589,72	63940,55
589,92	63929,49
590,11	63862,73
590,31	63810,71
590,50	63762,89
590,70	63769,96
590,89	63798,63
591,09	63830,07
591,28	63733,61
591,48	63925,91
591,67	63779,28
591,87	63983,87
592,06	63900,52
592,26	63922,02
592,45	63866,72
592,65	63821,05
592,84	63973,32
593,04	63955,91
593,23	63907,27
593,43	63969,94
593,62	63873,89
593,82	63854,44
594,01	63974,76
594,21	63851,26
594,40	63931,75
594,60	64006,19
594,79	63877,07
594,99	63848,80
595,18	63978,34
595,38	63821,67
595,57	63890,89
595,77	63835,60
595,96	63802,32
596,16	63864,68
596,35	63881,88
596,55	63857,51
596,74	63843,17
596,94	63897,44
597,13	63850,34
597,33	63931,13
597,52	63879,22
597,72	63917,41
597,91	63740,26
598,11	63947,31
598,30	63903,90
598,50	63908,09
598,69	63931,65
598,88	63917,41
599,08	63889,25
599,27	63892,43
599,47	63971,99
599,66	63836,93
599,86	63887,51
600,05	63882,08
600,25	63880,55
600,44	63837,64
600,64	63769,45
600,83	63877,17
601,02	63779,07
601,22	63852,08
601,41	63815,32
601,61	63880,45
601,80	63846,55
602,00	63877,48
602,19	63882,70
602,38	63914,24
602,58	63908,91
602,77	63897,96
602,97	63995,75
603,16	63867,95
603,36	63848,91
603,55	63826,99
603,74	63893,76
603,94	63926,32
604,13	63772,42
604,33	63866,11
604,52	63926,22
604,72	63870,92
604,91	63895,29
605,10	63929,49
605,30	63899,59
605,49	63760,95
605,69	63799,86
605,88	63836,01
606,07	63780,20
606,27	63711,49
606,46	63803,85
606,66	63853,21
606,85	63943,93
607,04	63890,17
607,24	63869,28
607,43	63773,64
607,63	63908,09
607,82	63839,38
608,01	63881,88
608,21	63884,75
608,40	63823,82
608,60	63861,71
608,79	63848,19
608,98	63853,00
609,18	63783,78
609,37	63704,94
609,57	63819,93
609,76	63757,16
609,95	63894,58
610,15	63792,18
610,34	63792,18
610,53	63939,43
610,73	45525,32
610,92	18851,86
611,11	525,71
611,31	513,94
611,50	483,73
611,70	444,61
611,89	432,53
612,08	462,02
612,28	435,60
612,47	419,01
612,66	402,63
612,86	404,27
613,05	415,33
613,24	379,80
613,44	378,36
613,63	395,57
613,82	355,53
614,02	352,25
614,21	366,59
614,41	367,61
614,60	365,15
614,79	362,70
614,99	380,82
615,18	430,18
615,37	539,43
615,57	659,86
615,76	848,68
615,95	1080,82
616,15	1356,37
616,34	1495,02
616,53	1623,83
616,73	1636,84
616,92	1621,79
617,11	1428,87
617,30	1233,18
617,50	1109,18
617,69	1003,10
617,88	831,68
618,08	736,55
618,27	660,57
618,46	637,53
618,66	577,02
618,85	540,97
619,04	497,96
619,24	475,74
619,43	402,73
619,62	398,53
619,82	349,18
620,01	312,72
620,20	288,35
620,39	245,76
620,59	234,80
620,78	238,79
620,97	208,69
621,17	208,59
621,36	178,17
621,55	186,47
621,74	200,50
621,94	185,34
622,13	175,82
622,32	161,99
622,52	195,68
622,71	189,95
622,90	178,69
623,09	189,64
623,29	151,86
623,48	171,11
623,67	158,31
623,86	125,95
624,06	159,84
624,25	144,38
624,44	144,48
624,64	152,27
624,83	164,04
625,02	130,35
625,21	151,75
625,41	133,32
625,60	134,76
625,79	122,06
625,98	142,03
626,18	137,01
626,37	111,82
626,56	128,20
626,75	142,54
626,95	144,07
627,14	146,74
627,33	137,11
627,52	122,37
627,72	121,24
627,91	104,86
628,10	101,58
628,29	106,29
628,49	104,55
628,68	91,85
628,87	130,87
629,06	109,36
629,25	111,72
629,45	97,59
629,64	120,73
629,83	97,89
630,02	73,42
630,22	86,73
630,41	91,13
630,60	108,44
630,79	88,68
630,98	97,18
631,18	59,90
631,37	91,75
631,56	105,68
631,75	66,76
631,94	92,06
632,14	85,71
632,33	57,96
632,52	80,59
632,71	82,43
632,90	79,26
633,10	73,52
633,29	56,52
633,48	81,00
633,67	64,41
633,86	64,72
634,06	74,03
634,25	80,49
634,44	30,41
634,63	72,29
634,82	58,57
635,02	44,85
635,21	36,97
635,40	55,40
635,59	15,56
635,78	53,55
635,97	52,22
636,17	53,55
636,36	49,77
636,55	54,17
636,74	40,75
636,93	47,62
637,12	51,81
637,32	72,19
637,51	39,42
637,70	35,12
637,89	48,02
638,08	25,39
638,27	24,99
638,47	33,89
638,66	4,10
638,85	30,11
639,04	5,32
639,23	29,90
639,42	17,82
639,62	22,53
639,81	31,54
640,00	-1,84
640,19	34,30
640,38	38,71
640,57	28,36
640,76	15,15
640,95	24,58
641,15	34,41
641,34	-3,58
641,53	-4,51
641,72	47,51
641,91	4,92
642,10	1,54
642,29	23,45
642,49	6,55
642,68	5,22
642,87	34,51
643,06	-5,84
643,25	9,83
643,44	7,37
643,63	-0,31
643,82	-13,93
644,01	12,39
644,21	-18,33
644,40	1,64
644,59	-2,76
644,78	-5,84
644,97	-2,15
645,16	5,22
645,35	-17,51
645,54	6,76
645,73	-16,90
645,92	-15,26
646,12	-8,91
646,31	-3,48
646,50	-8,19
646,69	-27,85
646,88	-5,53
647,07	-26,52
647,26	-6,76
647,45	-11,06
647,64	-1,13
647,83	1,95
648,02	-32,97
648,22	-5,43
648,41	-18,33
648,60	-20,79
648,79	20,89
648,98	-21,40
649,17	-35,94
649,36	-31,74
649,55	-19,05
649,74	-20,68
649,93	-1,84
650,12	-36,56
650,31	3,07
650,50	-40,04
650,69	-19,46
650,88	-7,88
651,08	-17,92
651,27	-25,39
651,46	-28,36
651,65	-37,89
651,84	-30,21
652,03	-31,23
652,22	-19,97
652,41	-49,25
652,60	-34,61
652,79	-48,02
652,98	-42,70
653,17	-42,80
653,36	-38,09
653,55	-54,68
653,74	-44,03
653,93	-53,04
654,12	-46,28
654,31	-54,99
654,50	-44,03
654,69	-49,56
654,88	-42,60
655,07	-67,38
655,26	-29,49
655,45	-57,34
655,64	-40,14
655,83	-28,88
656,02	-35,84
656,21	-44,95
656,40	-36,45
656,59	-30,31
656,78	-25,70
656,97	-1,02
657,17	-53,96
657,36	-3,38
657,55	-35,12
657,74	-47,41
657,93	-43,31
658,12	-45,36
658,31	-68,20
658,50	-50,07
658,69	-63,08
658,87	-55,81
659,06	-73,62
659,25	-63,79
659,44	-57,34
659,63	-54,37
659,82	-75,37
660,01	-43,42
660,20	-42,09
660,39	-56,32
660,58	-57,96
660,77	-100,86
660,96	-60,42
661,15	-58,47
661,34	-36,76
661,53	-61,23
661,72	-57,04
661,91	-54,07
662,10	-71,58
662,29	-53,04
662,48	-75,67
662,67	-91,24
662,86	-66,76
663,05	-68,81
663,24	-48,33
663,43	-102,09
663,62	-82,43
663,81	-80,89
664,00	-76,59
664,19	-56,42
664,38	-55,19
664,57	-80,69
664,76	-77,11
664,94	-100,86
665,13	-85,81
665,32	-98,71
665,51	-76,49
665,70	-93,59
665,89	-88,68
666,08	-114,89
666,27	-102,30
666,46	-100,45
666,65	-76,59
666,84	-85,71
667,03	-92,47
667,22	-81,00
667,41	-79,56
667,60	-57,14
667,78	-84,07
667,97	-61,44
668,16	-76,80
668,35	-98,20
668,54	-75,57
668,73	-61,44
668,92	-74,44
669,11	-90,83
669,30	-90,11
669,49	-61,44
669,68	-83,76
669,86	-93,59
670,05	-100,25
670,24	-74,34
670,43	-90,11
670,62	-97,59
670,81	-92,88
671,00	-105,06
671,19	-76,39
671,38	-117,86
671,57	-109,77
671,75	-99,22
671,94	-116,53
672,13	-111,72
672,32	-72,50
672,51	-117,66
672,70	-91,34
672,89	-89,80
673,08	-114,48
673,26	-96,05
673,45	-105,16
673,64	-115,20
673,83	-95,23
674,02	-118,88
674,21	-109,36
674,40	-127,38
674,59	-107,62
674,77	-109,46
674,96	-107,93
675,15	-120,83
675,34	-97,28
675,53	-61,23
675,72	-92,77
675,91	-73,83
676,09	-88,98
676,28	-106,49
676,47	-109,16
676,66	-99,84
676,85	-88,57
677,04	-117,25
677,22	-110,28
677,41	-118,07
677,60	-105,68
677,79	-102,81
677,98	-88,78
678,17	-114,28
678,36	-121,24
678,54	-92,77
678,73	-105,57
678,92	-116,12
679,11	-129,12
679,30	-118,68
679,48	-85,30
679,67	-115,20
679,86	-140,90
680,05	-111,00
680,24	-137,21
680,43	-117,76
680,61	-116,32
680,80	-104,65
680,99	-98,30
681,18	-132,81
681,37	-115,20
681,55	-138,75
681,74	-122,88
681,93	-146,53
682,12	-148,38
682,31	-106,90
682,49	-123,29
682,68	-111,41
682,87	-137,73
683,06	-135,47
683,25	-118,47
683,43	-123,19
683,62	-140,90
683,81	-124,62
684,00	-118,07
684,19	-142,33
684,37	-139,77
684,56	-114,79
684,75	-108,03
684,94	-144,69
685,12	-127,28
685,31	-107,62
685,50	-133,53
685,69	-121,44
685,88	-139,36
686,06	-124,93
686,25	-112,74
686,44	-136,50
686,63	-101,07
686,81	-97,38
687,00	-69,63
687,19	-67,69
687,38	-55,50
687,56	-59,19
687,75	-65,02
687,94	-38,19
688,13	-60,72
688,31	-50,07
688,50	-50,99
688,69	-66,15
688,88	-52,94
689,06	-65,53
689,25	-40,96
689,44	-53,35
689,63	-71,99
689,81	-60,21
690,00	-85,81
690,19	-59,70
690,38	-75,16
690,56	-46,28
690,75	-73,32
690,94	-83,66
691,13	-107,93
691,31	-104,45
691,50	-70,76
691,69	-86,01
691,87	-67,69
692,06	-100,66
692,25	-102,91
692,44	-114,89
692,62	-104,75
692,81	-86,73
693,00	-95,74
693,18	-107,93
693,37	-126,97
693,56	-100,35
693,75	-101,68
693,93	-93,80
694,12	-96,77
694,31	-117,76
694,49	-99,53
694,68	-103,83
694,87	-106,60
695,05	-107,93
695,24	-86,63
695,43	-81,61
695,62	-18,43
695,80	137,32
695,99	411,64
696,18	688,32
696,36	963,57
696,55	1201,34
696,74	1324,93
696,92	1348,69
697,11	1231,24
697,30	1057,98
697,48	883,19
697,67	741,47
697,86	592,58
698,04	492,23
698,23	390,85
698,42	326,75
698,60	283,03
698,79	215,96
698,98	177,56
699,16	128,10
699,35	86,22
699,54	73,62
699,72	41,88
699,91	15,15
700,10	-45,26
700,28	-66,66
700,47	-86,01
700,66	-64,20
700,84	-108,03
701,03	-108,75
701,21	-140,59
701,40	-115,71
701,59	-122,16
701,77	-129,33
701,96	-127,79
702,15	-128,82
702,33	-99,63
702,52	-132,61
702,71	-96,97
702,89	-95,84
703,08	-80,49
703,26	-112,23
703,45	-107,93
703,64	-93,69
703,82	-107,83
704,01	-111,31
704,20	-113,66
704,38	-98,51
704,57	-130,87
704,75	-117,45
704,94	-129,33
705,13	-117,66
705,31	-124,11
705,50	-119,09
705,68	-77,93
705,87	-13,11
706,06	131,58
706,24	322,76
706,43	519,77
706,61	703,37
706,80	781,50
706,99	835,88
707,17	799,73
707,36	677,88
707,54	574,05
707,73	426,28
707,92	387,37
708,10	290,20
708,29	247,80
708,47	184,73
708,66	157,90
708,84	94,21
709,03	69,32
709,22	46,18
709,40	37,38
709,59	-12,90
709,77	-37,89
709,96	-49,87
710,14	-95,54
710,33	-99,63
710,52	-100,96
710,70	-108,24
710,89	-118,99
711,07	-118,27
711,26	-119,50
711,44	-134,55
711,63	-131,38
711,81	-130,56
712,00	-127,59
712,19	-144,38
712,37	-133,73
712,56	-123,90
712,74	-135,27
712,93	-130,46
713,11	-142,54
713,30	-134,86
713,48	-136,50
713,67	-135,58
713,85	-124,72
714,04	-107,11
714,22	-99,33
714,41	-59,19
714,59	-58,88
714,78	-58,67
714,97	-30,51
715,15	-22,22
715,34	-62,77
715,52	-66,25
715,71	-68,20
715,89	-70,45
716,08	-73,93
716,26	-59,60
716,45	-82,64
716,63	-86,63
716,82	-79,97
717,00	-86,42
717,19	-81,61
717,37	-85,61
717,56	-108,85
717,74	-86,32
717,93	-100,25
718,11	-97,38
718,30	-91,03
718,48	-109,16
718,67	-83,25
718,85	-91,85
719,04	-101,68
719,22	-82,94
719,41	-90,73
719,59	-83,45
719,78	-98,51
719,96	-71,47
720,15	-75,67
720,33	-75,16
720,52	-81,61
720,70	-94,21
720,88	-83,25
721,07	-92,06
721,25	-76,90
721,44	-106,39
721,62	-97,28
721,81	-106,49
721,99	-119,60
722,18	-100,86
722,36	-100,56
722,55	-85,71
722,73	-91,44
722,92	-93,49
723,10	-88,27
723,28	-122,67
723,47	-75,37
723,65	-100,15
723,84	-87,24
724,02	-111,72
724,21	-109,46
724,39	-105,27
724,58	-85,20
724,76	-97,38
724,94	-80,18
725,13	-68,09
725,31	-78,74
725,50	-73,93
725,68	-99,53
725,87	-85,20
726,05	-70,25
726,23	-45,98
726,42	-16,49
726,60	22,73
726,79	114,79
726,97	155,85
727,16	223,84
727,34	214,83
727,52	242,58
727,71	215,24
727,89	184,62
728,08	128,92
728,26	95,33
728,44	65,84
728,63	67,48
728,81	23,65
729,00	-9,42
729,18	-6,55
729,36	-10,44
729,55	-39,32
729,73	-57,14
729,92	-37,27
730,10	-64,20
730,28	-87,76
730,47	-81,20
730,65	-81,41
730,84	-61,64
731,02	-89,39
731,20	-84,27
731,39	-80,18
731,57	-68,20
731,75	-90,01
731,94	-102,60
732,12	-92,98
732,31	-105,37
732,49	-119,50
732,67	-67,99
732,86	-99,02
733,04	-111,92
733,22	-129,64
733,41	-105,88
733,59	-92,47
733,78	-112,23
733,96	-104,14
734,14	-93,69
734,33	-111,61
734,51	-104,14
734,69	-101,27
734,88	-109,46
735,06	-109,98
735,24	-93,39
735,43	-91,75
735,61	-113,05
735,79	-80,89
735,98	-98,00
736,16	-82,23
736,34	-91,95
736,53	-65,02
736,71	-82,02
736,89	-71,06
737,08	-62,67
737,26	16,79
737,44	212,99
737,63	496,33
737,81	776,79
737,99	1094,74
738,18	1309,37
738,36	1485,19
738,54	1532,50
738,73	1415,45
738,91	1229,91
739,09	1056,55
739,28	886,57
739,46	762,46
739,64	661,39
739,82	541,59
740,01	397,72
740,19	302,28
740,37	250,67
740,56	142,85
740,74	79,36
740,92	0,41
741,11	-37,48
741,29	-61,64
741,47	-78,44
741,65	-79,36
741,84	-110,08
742,02	-96,66
742,20	-96,05
742,39	-103,73
742,57	-82,94
742,75	-112,23
742,93	-78,64
743,12	-121,55
743,30	-91,44
743,48	-110,90
743,67	-74,65
743,85	-116,53
744,03	-86,42
744,21	-113,66
744,40	-126,77
744,58	-88,37
744,76	-110,28
744,94	-80,08
745,13	-104,55
745,31	-97,28
745,49	-112,74
745,67	-101,27
745,86	-107,21
746,04	-126,15
746,22	-107,21
746,40	-97,07
746,59	-112,23
746,77	-110,80
746,95	-105,98
747,13	-120,22
747,32	-100,76
747,50	-95,54
747,68	-63,59
747,86	-97,28
748,05	-116,32
748,23	-87,76
748,41	-89,70
748,59	-98,10
748,77	-99,43
748,96	-81,92
749,14	-27,65
749,32	66,97
749,50	251,18
749,69	477,18
749,87	756,21
750,05	952,61
750,23	1123,00
750,41	1311,21
750,60	1496,96
750,78	1633,05
750,96	1764,94
751,14	1785,32
751,32	1829,86
751,51	1821,57
751,69	1664,18
751,87	1433,89
752,05	1235,95
752,23	978,72
752,42	798,50
752,60	636,71
752,78	481,48
752,96	385,84
753,14	241,25
753,33	143,46
753,51	79,77
753,69	9,42
753,87	-16,59
754,05	-43,42
754,23	-38,50
754,42	-75,06
754,60	-88,17
754,78	-82,23
754,96	-90,11
755,14	-66,46
755,32	-64,10
755,51	-99,63
755,69	-97,07
755,87	-76,70
756,05	-105,06
756,23	-91,95
756,41	-81,61
756,60	-107,01
756,78	-61,64
756,96	-89,91
757,14	-78,44
757,32	-91,13
757,50	-93,08
757,68	-111,00
757,87	-96,77
758,05	-80,28
758,23	-108,44
758,41	-73,11
758,59	-70,96
758,77	-59,70
758,95	-69,02
759,14	-83,86
759,32	-63,59
759,50	-44,13
759,68	-26,52
759,86	-31,54
760,04	4,10
760,22	19,76
760,40	15,87
760,59	37,79
760,77	20,58
760,95	36,56
761,13	24,58
761,31	44,03
761,49	36,35
761,67	27,85
761,85	51,10
762,03	75,47
762,22	332,79
762,40	950,46
762,58	1941,78
762,76	3273,78
762,94	4657,29
763,12	5823,09
763,30	6663,27
763,48	7106,14
763,66	6822,30
763,84	6229,82
764,02	5265,02
764,21	4435,80
764,39	3712,25
764,57	3006,73
764,75	2422,85
764,93	1880,65
765,11	1414,53
765,29	1083,58
765,47	829,12
765,65	711,67
765,83	669,28
766,01	705,73
766,19	696,21
766,37	697,44
766,56	696,92
766,74	595,86
766,92	495,40
767,10	407,14
767,28	317,03
767,46	272,38
767,64	194,97
767,82	121,44
768,00	67,48
768,18	40,45
768,36	0,61
768,54	6,66
768,72	-9,11
768,90	30,41
769,08	82,94
769,26	133,63
769,44	214,63
769,62	262,45
769,80	284,77
769,98	280,37
770,16	231,32
770,34	204,39
770,52	159,64
770,71	107,11
770,89	80,38
771,07	149,30
771,25	309,65
771,43	618,49
771,61	1076,72
771,79	1545,50
771,97	1962,98
772,15	2299,05
772,33	2459,41
772,51	2413,74
772,69	2154,46
772,87	1804,77
773,05	1436,96
773,23	1162,53
773,41	914,21
773,59	668,97
773,77	490,69
773,95	363,62
774,13	256,00
774,31	160,36
774,49	74,85
774,67	36,86
774,85	-8,29
775,03	-37,89
775,21	-48,02
775,39	-54,17
775,57	-53,55
775,75	-70,65
775,93	-61,44
776,10	-46,69
776,28	-57,14
776,46	-64,31
776,64	-67,28
776,82	-54,99
777,00	-55,09
777,18	-72,91
777,36	-74,65
777,54	-65,54
777,72	-93,49
777,90	-61,75
778,08	-93,18
778,26	-75,26
778,44	-58,88
778,62	-64,41
778,80	-92,98
778,98	-82,02
779,16	-72,81
779,34	-80,49
779,52	-85,81
779,70	-73,62
779,88	-63,69
780,05	-67,89
780,23	-58,67
780,41	-76,08
780,59	-60,21
780,77	-67,28
780,95	-59,39
781,13	-69,84
781,31	-66,87
781,49	-80,59
781,67	-79,05
781,85	-56,73
782,03	-85,50
782,21	-68,40
782,39	-38,19
782,56	-65,84
782,74	-59,49
782,92	-45,87
783,10	-72,50
783,28	-66,97
783,46	-55,91
783,64	-58,16
783,82	-92,26
784,00	-60,93
784,18	-84,79
784,35	-64,20
784,53	-57,04
784,71	-54,89
784,89	-59,80
785,07	-56,63
785,25	-70,86
785,43	-34,82
785,61	-53,66
785,79	-53,86
785,96	-25,91
786,14	-59,39
786,32	-57,55
786,50	-40,24
786,68	-60,82
786,86	-46,18
787,04	-67,99
787,22	-54,07
787,39	-49,56
787,57	-67,28
787,75	-64,82
787,93	-58,78
788,11	-68,81
788,29	-51,81
788,47	-61,44
788,65	-43,21
788,82	-53,04
789,00	-42,09
789,18	-23,65
789,36	-37,38
789,54	-73,42
789,72	-32,87
789,89	-41,68
790,07	-54,37
790,25	-45,57
790,43	-39,94
790,61	-34,41
790,79	-47,31
790,96	-15,97
791,14	-31,64
791,32	-19,05
791,50	-27,65
791,68	-26,73
791,86	-19,87
792,03	-39,22
792,21	-31,13
792,39	-36,35
792,57	-21,30
792,75	-36,56
792,93	-26,42
793,10	-24,78
793,28	-12,29
793,46	61,85
793,64	213,19
793,82	450,25
793,99	742,59
794,17	987,74
794,35	1210,66
794,53	1311,83
794,71	1351,97
794,88	1216,49
795,06	1028,08
795,24	824,00
795,42	623,50
795,60	484,14
795,77	342,93
795,95	276,48
796,13	262,86
796,31	204,59
796,49	161,69
796,66	136,09
796,84	113,15
797,02	64,51
797,20	39,42
797,37	35,74
797,55	-2,97
797,73	-7,07
797,91	-20,27
798,08	-21,20
798,26	-18,23
798,44	-16,59
798,62	-34,41
798,80	-23,96
798,97	-13,93
799,15	23,55
799,33	73,32
799,51	190,77
799,68	290,91
799,86	499,91
800,04	656,68
800,22	868,44
800,39	1077,74
800,57	1330,16
800,75	1519,18
800,93	1629,16
801,10	1673,80
801,28	1568,74
801,46	1461,12
801,63	1252,84
801,81	1003,71
801,99	753,04
802,17	594,12
802,34	498,99
802,52	364,54
802,70	326,45
802,88	285,38
803,05	228,04
803,23	154,62
803,41	129,12
803,58	124,82
803,76	65,23
803,94	50,38
804,12	25,91
804,29	5,63
804,47	11,57
804,65	1,13
804,82	3,69
805,00	-11,26
805,18	-10,44
805,35	13,00
805,53	-33,79
805,71	-4,51
805,89	1,74
806,06	11,88
806,24	-8,19
806,42	-20,17
806,59	12,80
806,77	20,38
806,95	5,43
807,12	1,02
807,30	11,98
807,48	-2,36
807,65	20,27
807,83	18,12
808,01	3,17
808,18	11,88
808,36	32,05
808,54	11,98
808,71	46,59
808,89	97,07
809,07	242,89
809,24	510,25
809,42	833,83
809,60	1174,20
809,77	1455,59
809,95	1662,85
810,13	2011,41
810,30	2495,04
810,48	3167,59
810,66	4040,34
810,83	4767,57
811,01	5316,32
811,18	5463,26
811,36	5415,03
811,54	4865,26
811,71	4069,62
811,89	3207,84
812,07	2546,24
812,24	2074,49
812,42	1680,87
812,59	1438,80
812,77	1204,82
812,95	1029,92
813,12	911,45
813,30	811,92
813,48	667,95
813,65	531,45
813,83	394,85
814,00	294,50
814,18	234,90
814,36	146,53
814,53	147,56
814,71	95,33
814,88	79,36
815,06	85,50
815,24	92,47
815,41	67,17
815,59	73,62
815,76	110,69
815,94	82,53
816,12	82,12
816,29	118,17
816,47	132,81
816,64	203,16
816,82	570,56
817,00	1542,73
817,17	3082,81
817,35	5061,04
817,52	7080,34
817,70	8719,43
817,87	9853,19
818,05	11082,58
818,23	12333,48
818,40	14071,29
818,58	15815,75
818,75	17585,40
818,93	18620,23
819,10	19193,67
819,28	18108,24
819,46	16319,65
819,63	13674,70
819,81	11100,71
819,98	8927,40
820,16	7327,94
820,33	6214,36
820,51	5231,64
820,68	4445,42
820,86	3858,99
821,03	3299,48
821,21	2826,71
821,39	2409,44
821,56	1923,25
821,74	1496,14
821,91	1166,11
822,09	831,78
822,26	612,65
822,44	436,01
822,61	336,17
822,79	241,76
822,96	206,44
823,14	162,71
823,31	129,53
823,49	91,75
823,66	108,24
823,84	70,55
824,01	56,52
824,19	57,96
824,36	61,03
824,54	52,74
824,71	73,93
824,89	87,24
825,06	182,78
825,24	293,37
825,41	441,34
825,59	611,01
825,76	686,27
825,94	759,28
826,11	811,00
826,29	728,05
826,46	650,64
826,64	538,92
826,81	426,18
826,99	352,66
827,16	285,08
827,34	257,94
827,51	249,44
827,69	176,43
827,86	201,32
828,04	157,69
828,21	170,29
828,39	134,76
828,56	110,90
828,74	100,96
828,91	69,73
829,09	63,90
829,26	32,67
829,43	25,29
829,61	14,54
829,78	21,09
829,96	47,82
830,13	15,15
830,31	13,21
830,48	6,45
830,66	-3,38
830,83	17,20
831,01	22,63
831,18	27,75
831,35	20,27
831,53	13,11
831,70	14,13
831,88	24,78
832,05	5,63
832,23	3,28
832,40	2,97
832,57	16,90
832,75	16,18
832,92	14,44
833,10	26,32
833,27	26,62
833,45	12,39
833,62	7,58
833,79	12,90
833,97	-5,84
834,14	8,81
834,32	-9,83
834,49	4,81
834,66	-8,50
834,84	-18,64
835,01	-4,10
835,19	30,62
835,36	-7,58
835,53	16,79
835,71	17,61
835,88	19,56
836,06	23,65
836,23	9,11
836,40	-3,07
836,58	4,20
836,75	-12,29
836,93	22,22
837,10	4,40
837,27	5,43
837,45	0,82
837,62	-1,23
837,79	1,43
837,97	-12,39
838,14	0,20
838,32	25,60
838,49	13,11
838,66	-0,92
838,84	15,46
839,01	40,75
839,18	71,68
839,36	157,28
839,53	280,88
839,70	440,31
839,88	617,97
840,05	798,20
840,23	886,16
840,40	911,24
840,57	932,03
840,75	898,75
840,92	841,31
841,09	856,77
841,27	968,69
841,44	1118,91
841,61	1305,58
841,79	1387,70
841,96	1462,76
842,13	1469,62
842,31	1373,68
842,48	1214,75
842,65	1049,58
842,83	901,11
843,00	777,41
843,17	672,86
843,35	569,23
843,52	493,56
843,69	410,21
843,86	388,60
844,04	346,52
844,21	292,55
844,38	265,62
844,56	215,34
844,73	183,50
844,90	125,75
845,08	99,84
845,25	101,78
845,42	57,86
845,60	27,85
845,77	23,86
845,94	19,05
846,11	12,90
846,29	25,29
846,46	24,06
846,63	10,34
846,81	8,60
846,98	12,80
847,15	27,75
847,32	1,84
847,50	-13,52
847,67	-22,73
847,84	1,43
848,01	-27,65
848,19	4,40
848,36	7,07
848,53	-18,43
848,71	13,62
848,88	6,66
849,05	19,56
849,22	13,82
849,40	-4,51
849,57	13,41
849,74	-0,20
849,91	18,33
850,09	0,41
850,26	3,58
850,43	26,11
850,60	39,32
850,78	76,08
850,95	131,17
851,12	183,70
851,29	229,27
851,47	251,39
851,64	306,79
851,81	301,05
851,98	276,68
852,15	257,74
852,33	221,90
852,50	230,91
852,67	169,98
852,84	146,43
853,02	139,98
853,19	131,07
853,36	119,91
853,53	107,01
853,70	70,45
853,88	95,64
854,05	82,33
854,22	69,12
854,39	68,30
854,56	49,87
854,74	75,67
854,91	33,07
855,08	19,25
855,25	1,33
855,42	10,96
855,60	13,41
855,77	8,40
855,94	25,09
856,11	17,00
856,28	19,56
856,46	2,15
856,63	5,63
856,80	25,09
856,97	4,92
857,14	23,96
857,31	-18,43
857,49	18,84
857,66	17,82
857,83	12,08
858,00	32,15
858,17	13,62
858,34	-7,37
858,52	-0,92
858,69	14,13
858,86	-4,40
859,03	-6,35
859,20	-4,10
859,37	8,60
859,55	-19,25
859,72	7,48
859,89	1,13
860,06	22,22
860,23	13,93
860,40	3,99
860,57	7,27
860,75	12,19
860,92	-0,31
861,09	15,87
861,26	0,10
861,43	5,73
861,60	7,88
861,77	-3,28
861,95	-10,96
862,12	26,42
862,29	-3,58
862,46	-15,15
862,63	22,53
862,80	-9,73
862,97	16,18
863,14	2,46
863,31	15,56
863,49	9,63
863,66	-2,97
863,83	-14,54
864,00	-5,94
864,17	11,78
864,34	6,45
864,51	3,38
864,68	7,88
864,85	6,76
865,02	8,29
865,20	2,76
865,37	17,20
865,54	29,49
865,71	36,35
865,88	41,98
866,05	24,27
866,22	33,89
866,39	68,50
866,56	52,02
866,73	35,12
866,90	43,93
867,07	52,74
867,25	28,77
867,42	45,26
867,59	32,26
867,76	51,61
867,93	28,98
868,10	31,23
868,27	33,38
868,44	28,26
868,61	14,13
868,78	0,20
868,95	11,88
869,12	28,98
869,29	22,02
869,46	-5,73
869,63	15,46
869,80	14,34
869,97	19,56
870,14	-0,10
870,32	4,40
870,49	-0,92
870,66	11,47
870,83	32,77
871,00	6,86
871,17	6,14
871,34	25,91
871,51	-7,27
871,68	8,19
871,85	2,97
872,02	1,84
872,19	11,37
872,36	14,75
872,53	16,79
872,70	12,08
872,87	13,93
873,04	9,93
873,21	15,36
873,38	16,69
873,55	0,00
873,72	36,97
873,89	-1,84
874,06	-3,28
874,23	-0,72
874,40	-8,81
874,57	19,35
874,74	-2,36
874,91	12,90
875,08	3,28
875,25	7,88
875,42	-17,31
875,59	3,17
875,76	-8,81
875,93	11,57
876,10	-4,71
876,27	10,65
876,44	15,05
876,61	4,10
876,78	7,07
876,95	11,98
877,12	10,04
877,29	4,61
877,46	22,22
877,62	3,89
877,79	9,93
877,96	25,29
878,13	16,79
878,30	-27,75
878,47	19,05
878,64	-18,12
878,81	6,96
878,98	3,58
879,15	13,72
879,32	23,04
879,49	8,09
879,66	16,18
879,83	1,95
880,00	31,85
880,17	8,60
880,34	24,88
880,51	10,96
880,67	0,92
880,84	14,95
881,01	15,15
881,18	22,22
881,35	6,55
881,52	2,97
881,69	15,56
881,86	17,20
882,03	0,41
882,20	14,75
882,37	6,25
882,54	17,41
882,70	27,65
882,87	17,51
883,04	2,97
883,21	-8,60
883,38	12,90
883,55	38,91
883,72	27,75
883,89	-12,08
884,06	10,85
884,23	26,52
884,39	10,96
884,56	-0,51
884,73	7,17
884,90	15,87
885,07	23,45
885,24	13,62
885,41	26,83
885,58	16,28
885,74	20,99
885,91	3,38
886,08	25,09
886,25	3,28
886,42	24,17
886,59	10,24
886,76	13,31
886,93	18,43
887,09	5,12
887,26	2,36
887,43	34,92
887,60	21,09
887,77	23,24
887,94	-1,84
888,10	6,86
888,27	42,60
888,44	15,67
888,61	20,58
888,78	-3,28
888,95	8,50
889,12	-13,21
889,28	10,96
889,45	24,58
889,62	-4,40
889,79	10,34
889,96	12,19
890,13	8,29
890,29	23,65
890,46	-7,58
890,63	9,83
890,80	13,82
890,97	21,91
891,13	26,21
891,30	-6,55
891,47	40,04
891,64	9,52
891,81	15,05
891,98	-0,82
892,14	14,13
892,31	15,46
892,48	21,40
892,65	24,68
892,82	14,64
892,98	5,43
893,15	-3,58
893,32	-2,66
>>>>>End Processed Spectral Data<<<<<
