SpectraSuite Datei
++++++++++++++++++++++++++++++++++++
Datum: Tue Dec 10 15:40:19 CET 2019
Benutzer: Lichtquellen1
Dark-Spektrum vorhanden: Ja
Referenz-Spektrum vorhanden: Nein
Zahl der probierten Teilspektren: 1
Spektrometer: USB4F05832
Integrationszeit (usec): 200000 (USB4F05832)
Spektren Durchschnitt berechnet: 20 (USB4F05832)
Boxcar Glättung: 0 (USB4F05832)
Dunkelstromkorrektur: Nein (USB4F05832)
Puls/Lampe aktiviert: Nein (USB4F05832)
Correct for Detector Non-linearity: Nein (USB4F05832)
Streulichtkorrektur: Nein (USB4F05832)
Anzahl Pixel in verarbeitetem Spektrum: 3648
>>>>>Begin Processed Spectral Data<<<<<
177,54	2,46
177,75	2,46
177,97	2,46
178,19	11,47
178,41	1,23
178,63	-2,56
178,85	12,08
179,07	-2,76
179,29	15,05
179,51	6,96
179,73	13,62
179,95	-3,07
180,17	3,38
180,39	23,04
180,61	28,47
180,83	7,58
181,05	25,09
181,27	14,23
181,49	254,36
181,71	392,39
181,92	371,09
182,14	416,97
182,36	387,58
182,58	438,37
182,80	403,86
183,02	427,21
183,24	416,86
183,46	404,27
183,68	411,03
183,90	421,68
184,12	420,76
184,34	436,63
184,56	444,51
184,78	424,54
185,00	470,52
185,21	462,53
185,43	437,96
185,65	413,18
185,87	415,33
186,09	415,43
186,31	382,05
186,53	388,09
186,75	391,06
186,97	400,48
187,19	398,64
187,41	367,30
187,63	396,49
187,84	383,79
188,06	398,33
188,28	396,28
188,50	390,34
188,72	400,99
188,94	387,78
189,16	403,35
189,38	408,06
189,60	383,69
189,82	389,63
190,03	405,70
190,25	398,64
190,47	413,79
190,69	407,65
190,91	401,50
191,13	391,47
191,35	409,70
191,57	402,84
191,79	416,97
192,01	396,79
192,22	394,75
192,44	389,11
192,66	386,76
192,88	372,53
193,10	384,92
193,32	422,60
193,54	401,71
193,76	426,80
193,98	393,52
194,19	401,81
194,41	392,29
194,63	397,72
194,85	416,15
195,07	393,01
195,29	378,46
195,51	383,17
195,73	405,09
195,94	413,59
196,16	421,16
196,38	400,99
196,60	393,72
196,82	394,85
197,04	382,77
197,26	400,89
197,48	410,41
197,69	406,42
197,91	408,36
198,13	415,53
198,35	400,99
198,57	409,70
198,79	415,43
199,01	414,71
199,22	406,11
199,44	412,67
199,66	392,60
199,88	404,37
200,10	411,74
200,32	439,90
200,54	450,35
200,75	417,07
200,97	424,54
201,19	438,57
201,41	460,38
201,63	482,30
201,85	438,06
202,06	432,02
202,28	425,98
202,50	424,95
202,72	415,94
202,94	392,08
203,16	401,20
203,38	397,41
203,59	414,00
203,81	418,20
204,03	423,62
204,25	405,29
204,47	386,76
204,69	384,61
204,90	403,65
205,12	406,52
205,34	403,25
205,56	411,95
205,78	403,25
206,00	432,02
206,21	438,88
206,43	425,06
206,65	429,66
206,87	409,80
207,09	441,95
207,30	431,00
207,52	422,91
207,74	404,88
207,96	399,25
208,18	413,69
208,40	404,99
208,61	404,68
208,83	423,42
209,05	395,67
209,27	432,74
209,49	433,96
209,70	404,47
209,92	406,01
210,14	390,85
210,36	401,40
210,58	381,64
210,79	404,27
211,01	417,79
211,23	423,32
211,45	397,20
211,67	404,68
211,88	432,84
212,10	403,25
212,32	400,48
212,54	418,40
212,76	427,31
212,97	438,06
213,19	429,46
213,41	425,98
213,63	434,99
213,85	413,38
214,06	374,78
214,28	414,10
214,50	398,43
214,72	417,17
214,94	396,18
215,15	420,55
215,37	415,33
215,59	414,61
215,81	412,77
216,02	388,40
216,24	410,00
216,46	401,50
216,68	427,21
216,90	398,23
217,11	406,83
217,33	411,64
217,55	427,41
217,77	397,92
217,98	415,43
218,20	410,00
218,42	385,73
218,64	393,31
218,85	416,04
219,07	432,94
219,29	393,82
219,51	400,17
219,73	423,11
219,94	418,09
220,16	418,71
220,38	414,92
220,60	401,50
220,81	420,86
221,03	395,87
221,25	428,44
221,47	417,27
221,68	423,32
221,90	431,40
222,12	417,48
222,34	413,18
222,55	422,50
222,77	428,84
222,99	428,95
223,21	419,63
223,42	423,11
223,64	411,74
223,86	416,76
224,08	423,01
224,29	440,93
224,51	386,55
224,73	411,74
224,94	411,33
225,16	429,25
225,38	403,35
225,60	423,01
225,81	436,22
226,03	420,86
226,25	357,17
226,47	419,01
226,68	437,55
226,90	433,35
227,12	417,48
227,33	446,76
227,55	407,03
227,77	437,34
227,99	444,00
228,20	453,83
228,42	423,42
228,64	426,28
228,86	422,60
229,07	419,83
229,29	405,40
229,51	446,05
229,72	423,11
229,94	451,07
230,16	428,74
230,38	406,62
230,59	448,81
230,81	448,40
231,03	442,46
231,24	433,86
231,46	420,24
231,68	450,04
231,89	441,23
232,11	448,51
232,33	466,22
232,55	444,20
232,76	458,44
232,98	474,51
233,20	476,15
233,41	500,63
233,63	522,74
233,85	542,30
234,06	554,59
234,28	555,82
234,50	583,47
234,71	563,70
234,93	587,15
235,15	544,15
235,37	523,77
235,58	495,10
235,80	467,04
236,02	461,00
236,23	422,09
236,45	432,12
236,67	438,57
236,88	441,64
237,10	419,22
237,32	437,24
237,53	444,10
237,75	447,17
237,97	454,03
238,18	425,16
238,40	445,43
238,62	459,77
238,83	430,48
239,05	428,64
239,27	415,64
239,48	416,35
239,70	415,84
239,92	427,00
240,13	420,14
240,35	437,14
240,57	437,45
240,78	448,51
241,00	423,83
241,22	442,57
241,43	433,15
241,65	438,67
241,87	444,31
242,08	432,43
242,30	441,64
242,52	446,15
242,73	447,69
242,95	444,92
243,16	460,28
243,38	463,66
243,60	461,00
243,81	435,91
244,03	465,61
244,25	453,32
244,46	434,17
244,68	448,20
244,90	424,75
245,11	419,83
245,33	445,95
245,55	451,37
245,76	453,01
245,98	434,99
246,19	451,17
246,41	463,86
246,63	428,33
246,84	446,46
247,06	439,70
247,28	451,27
247,49	425,16
247,71	493,56
247,92	443,79
248,14	456,19
248,36	434,37
248,57	454,55
248,79	428,74
249,01	468,47
249,22	440,31
249,44	456,29
249,65	478,82
249,87	455,98
250,09	450,14
250,30	486,90
250,52	452,19
250,73	471,65
250,95	470,11
251,17	465,81
251,38	483,01
251,60	487,42
251,81	447,69
252,03	462,53
252,25	450,45
252,46	438,27
252,68	458,23
252,89	441,54
253,11	454,65
253,33	474,41
253,54	457,11
253,76	476,77
253,97	464,68
254,19	472,16
254,41	450,45
254,62	477,28
254,84	486,09
255,05	486,70
255,27	475,74
255,49	467,04
255,70	503,08
255,92	458,13
256,13	484,34
256,35	460,18
256,56	436,22
256,78	477,79
257,00	475,64
257,21	456,29
257,43	476,97
257,64	469,70
257,86	453,73
258,08	463,35
258,29	455,37
258,51	498,07
258,72	457,62
258,94	465,71
259,15	479,94
259,37	472,06
259,59	471,24
259,80	491,10
260,02	487,62
260,23	491,21
260,45	500,22
260,66	479,84
260,88	481,48
261,09	478,82
261,31	493,25
261,53	544,86
261,74	542,10
261,96	530,12
262,17	560,12
262,39	574,46
262,60	574,05
262,82	581,52
263,03	549,16
263,25	618,69
263,46	594,93
263,68	615,82
263,90	614,60
264,11	581,32
264,33	612,34
264,54	629,96
264,76	621,76
264,97	679,00
265,19	646,03
265,40	661,08
265,62	643,37
265,83	687,81
266,05	701,22
266,26	700,10
266,48	700,30
266,70	695,59
266,91	708,80
267,13	722,52
267,34	702,35
267,56	741,57
267,77	766,76
267,99	730,20
268,20	767,89
268,42	766,15
268,63	769,11
268,85	774,95
269,06	779,25
269,28	756,42
269,49	778,74
269,71	755,80
269,92	750,17
270,14	776,49
270,35	792,05
270,57	783,45
270,78	814,17
271,00	829,94
271,21	814,37
271,43	809,66
271,64	814,48
271,86	798,40
272,07	826,56
272,29	823,80
272,50	811,41
272,72	811,41
272,93	823,59
273,15	815,50
273,36	825,13
273,58	779,56
273,79	784,88
274,01	786,73
274,22	814,58
274,44	815,81
274,65	795,64
274,87	817,04
275,08	801,88
275,30	831,37
275,51	828,61
275,73	793,49
275,94	850,83
276,16	830,76
276,37	860,66
276,59	832,60
276,80	854,21
277,02	884,93
277,23	848,78
277,45	889,23
277,66	892,50
277,88	882,88
278,09	914,93
278,30	894,45
278,52	918,00
278,73	925,07
278,95	932,44
279,16	921,79
279,38	936,84
279,59	940,84
279,81	949,34
280,02	975,45
280,24	1005,66
280,45	992,86
280,67	994,08
280,88	988,14
281,09	984,46
281,31	1020,50
281,52	1062,49
281,74	1040,98
281,95	1076,21
282,17	1057,78
282,38	1075,39
282,60	1069,35
282,81	1087,68
283,02	1113,28
283,24	1130,58
283,45	1148,19
283,67	1145,74
283,88	1155,46
284,10	1156,08
284,31	1191,61
284,53	1155,26
284,74	1153,11
284,95	1141,23
285,17	1097,51
285,38	1132,22
285,60	1114,81
285,81	1120,03
286,03	1136,62
286,24	1159,15
286,45	1155,16
286,67	1221,00
286,88	1260,42
287,10	1260,93
287,31	1336,61
287,53	1362,00
287,74	1396,10
287,95	1410,44
288,17	1416,89
288,38	1422,93
288,60	1418,53
288,81	1343,16
289,02	1332,82
289,24	1265,13
289,45	1257,45
289,67	1213,11
289,88	1179,02
290,10	1145,33
290,31	1115,94
290,52	1128,12
290,74	1106,72
290,95	1108,26
291,17	1127,20
291,38	1137,65
291,59	1135,29
291,81	1138,26
292,02	1111,23
292,24	1097,51
292,45	1124,13
292,66	1100,68
292,88	1087,68
293,09	1103,65
293,31	1101,60
293,52	1084,60
293,73	1140,62
293,95	1138,36
294,16	1113,17
294,37	1143,18
294,59	1135,09
294,80	1120,55
295,02	1111,74
295,23	1111,94
295,44	1086,86
295,66	1096,89
295,87	1119,01
296,09	1102,83
296,30	1095,15
296,51	1054,19
296,73	1067,09
296,94	1019,27
297,15	1065,66
297,37	1037,19
297,58	1023,37
297,79	1014,97
298,01	999,92
298,22	1016,00
298,44	1012,52
298,65	1018,35
298,86	959,58
299,08	989,27
299,29	1007,09
299,50	992,55
299,72	991,11
299,93	1007,29
300,14	996,64
300,36	1013,95
300,57	1024,19
300,79	1031,25
301,00	1033,71
301,21	994,49
301,43	1022,86
301,64	985,58
301,85	1001,25
302,07	1029,51
302,28	995,11
302,49	973,50
302,71	998,08
302,92	982,10
303,13	973,91
303,35	941,76
303,56	935,10
303,77	921,18
303,99	913,70
304,20	872,43
304,41	880,11
304,63	856,87
304,84	880,63
305,05	848,17
305,27	812,22
305,48	815,71
305,69	801,98
305,91	765,84
306,12	804,95
306,33	778,84
306,55	823,59
306,76	862,09
306,97	927,73
307,19	988,04
307,40	1033,92
307,61	1068,02
307,82	1106,72
308,04	1058,39
308,25	1071,50
308,46	1009,55
308,68	971,15
308,89	940,22
309,10	885,23
309,32	863,42
309,53	816,22
309,74	766,55
309,96	747,61
310,17	718,33
310,38	685,05
310,59	671,53
310,81	649,31
311,02	650,43
311,23	683,20
311,45	646,54
311,66	665,90
311,87	666,72
312,09	683,92
312,30	670,30
312,51	698,77
312,72	699,18
312,94	704,60
313,15	711,36
313,36	707,16
313,58	703,37
313,79	705,01
314,00	662,01
314,21	640,40
314,43	657,71
314,64	647,67
314,85	659,55
315,06	644,09
315,28	662,93
315,49	645,93
315,70	666,00
315,92	662,42
316,13	631,49
316,34	682,08
316,55	694,98
316,77	691,29
316,98	666,72
317,19	653,71
317,40	663,64
317,62	658,01
317,83	686,17
318,04	690,06
318,25	654,94
318,47	662,42
318,68	689,55
318,89	651,05
319,11	675,62
319,32	678,29
319,53	692,52
319,74	683,51
319,96	688,22
320,17	689,65
320,38	688,42
320,59	700,20
320,81	705,32
321,02	727,64
321,23	714,64
321,44	717,61
321,65	732,25
321,87	726,93
322,08	727,54
322,29	736,14
322,50	727,85
322,72	746,08
322,93	740,65
323,14	719,35
323,35	714,74
323,57	722,73
323,78	735,53
323,99	770,86
324,20	757,54
324,41	785,29
324,63	755,50
324,84	762,56
325,05	775,26
325,26	786,11
325,48	787,24
325,69	781,61
325,90	807,72
326,11	813,25
326,32	806,18
326,54	801,06
326,75	811,10
326,96	852,98
327,17	865,68
327,39	906,94
327,60	955,07
327,81	1000,64
328,02	1021,73
328,23	1089,62
328,45	1106,62
328,66	1141,64
328,87	1152,19
329,08	1136,52
329,29	1134,68
329,51	1130,38
329,72	1176,35
329,93	1219,57
330,14	1289,71
330,35	1448,12
330,56	1587,59
330,78	1747,94
330,99	1951,30
331,20	2316,36
331,41	2982,87
331,62	4893,72
331,84	8888,29
332,05	16454,81
332,26	27200,10
332,47	43347,10
332,68	60322,10
332,90	63950,69
333,11	63988,07
333,32	63748,97
333,53	63854,13
333,74	64039,16
333,95	63855,46
334,17	63889,15
334,38	63891,81
334,59	53702,04
334,80	43519,13
335,01	36809,58
335,22	32555,02
335,44	26999,70
335,65	19640,63
335,86	13856,04
336,07	8281,27
336,28	4691,59
336,49	2733,63
336,71	1938,40
336,92	1531,16
337,13	1409,92
337,34	1249,77
337,55	1219,46
337,76	1188,23
337,97	1136,52
338,19	1123,82
338,40	1074,06
338,61	1076,62
338,82	1046,20
339,03	1055,52
339,24	1040,06
339,45	1002,79
339,67	997,77
339,88	995,11
340,09	1000,64
340,30	1003,30
340,51	982,62
340,72	947,80
340,93	985,48
341,15	966,85
341,36	975,45
341,57	962,44
341,78	942,88
341,99	966,74
342,20	973,81
342,41	963,36
342,62	928,34
342,84	943,09
343,05	940,43
343,26	949,64
343,47	940,94
343,68	916,67
343,89	953,12
344,10	951,28
344,31	930,60
344,53	961,32
344,74	959,47
344,95	960,80
345,16	993,98
345,37	1016,71
345,58	989,27
345,79	995,62
346,00	978,52
346,21	944,52
346,42	911,96
346,64	951,08
346,85	961,52
347,06	929,88
347,27	953,53
347,48	925,68
347,69	941,25
347,90	925,78
348,11	931,11
348,32	922,00
348,53	909,30
348,75	951,79
348,96	928,24
349,17	937,05
349,38	935,82
349,59	909,71
349,80	918,00
350,01	930,80
350,22	963,47
350,43	956,20
350,64	981,69
350,85	935,92
351,06	940,53
351,28	939,92
351,49	960,29
351,70	965,21
351,91	958,45
352,12	963,36
352,33	968,48
352,54	978,11
352,75	957,43
352,96	956,40
353,17	968,89
353,38	953,02
353,59	969,41
353,80	983,74
354,01	975,86
354,22	990,70
354,44	970,84
354,65	990,50
354,86	986,71
355,07	969,20
355,28	982,82
355,49	1017,94
355,70	980,26
355,91	988,14
356,12	984,87
356,33	1000,33
356,54	978,83
356,75	992,34
356,96	992,96
357,17	983,23
357,38	1036,99
357,59	1030,13
357,80	1037,19
358,01	1087,27
358,22	1101,70
358,43	1105,70
358,64	1103,65
358,85	1080,71
359,07	1112,76
359,28	1098,53
359,49	1108,26
359,70	1126,38
359,91	1128,64
360,12	1155,67
360,33	1165,29
360,54	1203,28
360,75	1304,76
360,96	1340,81
361,17	1392,00
361,38	1477,92
361,59	1560,04
361,80	1587,59
362,01	1594,04
362,22	1625,37
362,43	1546,22
362,64	1530,65
362,85	1498,19
363,06	1428,36
363,27	1383,51
363,48	1346,23
363,69	1319,30
363,90	1237,18
364,11	1221,20
364,32	1180,04
364,53	1133,24
364,74	1090,44
364,95	1127,20
365,16	1073,55
365,37	1099,35
365,58	1095,25
365,79	1155,16
366,00	1125,46
366,21	1118,09
366,42	1103,65
366,63	1091,98
366,84	1112,66
367,05	1110,31
367,26	1099,25
367,47	1106,42
367,68	1111,13
367,89	1091,36
368,10	1087,27
368,31	1039,34
368,52	1052,04
368,73	1116,04
368,94	1129,97
369,15	1108,67
369,36	1103,65
369,57	1137,75
369,78	1147,48
369,99	1114,20
370,20	1115,02
370,40	1096,38
370,61	1143,48
370,82	1133,65
371,03	1141,13
371,24	1140,92
371,45	1136,01
371,66	1170,11
371,87	1145,22
372,08	1178,30
372,29	1167,85
372,50	1124,44
372,71	1128,74
372,92	1146,15
373,13	1172,05
373,34	1136,62
373,55	1146,35
373,76	1141,54
373,97	1147,89
374,18	1147,48
374,39	1169,90
374,60	1162,84
374,81	1170,93
375,01	1153,21
375,22	1162,22
375,43	1180,96
375,64	1190,38
375,85	1166,52
376,06	1183,32
376,27	1144,81
376,48	1168,37
376,69	1160,89
376,90	1171,64
377,11	1171,95
377,32	1172,67
377,53	1160,38
377,74	1213,93
377,94	1190,89
378,15	1218,03
378,36	1199,90
378,57	1237,79
378,78	1198,68
378,99	1237,18
379,20	1240,86
379,41	1233,90
379,62	1247,93
379,83	1255,20
380,04	1237,59
380,25	1220,90
380,45	1194,27
380,66	1210,14
380,87	1202,87
381,08	1204,31
381,29	1204,92
381,50	1177,68
381,71	1191,20
381,92	1221,31
382,13	1205,64
382,34	1215,47
382,55	1217,42
382,75	1236,46
382,96	1213,01
383,17	1241,68
383,38	1245,27
383,59	1222,53
383,80	1230,01
384,01	1230,83
384,22	1194,27
384,43	1161,61
384,63	1136,32
384,84	1201,34
385,05	1174,51
385,26	1220,38
385,47	1246,29
385,68	1227,35
385,89	1212,19
386,10	1203,90
386,30	1188,03
386,51	1153,83
386,72	1173,69
386,93	1167,03
387,14	1145,33
387,35	1184,24
387,56	1173,38
387,77	1225,61
387,97	1199,50
388,18	1208,10
388,39	1229,09
388,60	1207,28
388,81	1210,55
389,02	1205,23
389,23	1262,78
389,43	1232,37
389,64	1281,82
389,85	1264,62
390,06	1247,42
390,27	1281,41
390,48	1241,99
390,69	1239,43
390,89	1241,89
391,10	1238,20
391,31	1220,59
391,52	1241,79
391,73	1253,05
391,94	1233,90
392,14	1219,26
392,35	1206,15
392,56	1201,95
392,77	1241,79
392,98	1218,54
393,19	1262,88
393,39	1243,94
393,60	1280,39
393,81	1316,74
394,02	1315,00
394,23	1383,91
394,44	1393,85
394,64	1411,87
394,85	1451,29
395,06	1443,51
395,27	1467,16
395,48	1482,32
395,69	1466,55
395,89	1564,55
396,10	1611,03
396,31	1635,10
396,52	1701,55
396,73	1744,56
396,93	1805,59
397,14	1771,70
397,35	1736,47
397,56	1635,92
397,77	1570,28
397,97	1580,21
398,18	1528,09
398,39	1483,34
398,60	1441,57
398,81	1412,38
399,01	1420,88
399,22	1423,13
399,43	1358,11
399,64	1360,98
399,85	1358,72
400,05	1331,08
400,26	1296,88
400,47	1301,18
400,68	1307,53
400,89	1283,26
401,09	1259,91
401,30	1270,25
401,51	1254,69
401,72	1264,21
401,93	1267,39
402,13	1280,90
402,34	1252,54
402,55	1239,74
402,76	1265,24
402,96	1277,93
403,17	1249,77
403,38	1294,32
403,59	1245,98
403,80	1300,56
404,00	1282,95
404,21	1265,03
404,42	1241,79
404,63	1286,74
404,83	1308,86
405,04	1281,93
405,25	1373,47
405,46	1401,73
405,66	1480,89
405,87	1616,87
406,08	1720,81
406,29	1850,24
406,49	1940,86
406,70	1889,97
406,91	1866,42
407,12	1847,27
407,32	1705,34
407,53	1696,23
407,74	1661,41
407,95	1607,66
408,15	1611,44
408,36	1543,66
408,57	1551,13
408,78	1520,92
408,98	1505,15
409,19	1451,09
409,40	1494,30
409,61	1430,10
409,81	1423,85
410,02	1390,06
410,23	1427,84
410,44	1479,96
410,64	1518,88
410,85	1623,02
411,06	1682,82
411,26	1752,55
411,47	1839,28
411,68	1873,89
411,89	1810,40
412,09	1826,48
412,30	1808,25
412,51	1811,74
412,72	1773,44
412,92	1806,10
413,13	1775,69
413,34	1714,66
413,54	1665,31
413,75	1646,36
413,96	1601,20
414,17	1539,46
414,37	1524,41
414,58	1540,28
414,79	1493,28
414,99	1482,01
415,20	1481,19
415,41	1459,69
415,61	1457,13
415,82	1465,22
416,03	1445,97
416,24	1493,28
416,44	1540,48
416,65	1757,67
416,86	2134,80
417,06	2640,65
417,27	3293,95
417,48	3926,98
417,68	4634,45
417,89	4825,63
418,10	4613,25
418,30	4472,15
418,51	4020,27
418,72	3618,97
418,92	3434,14
419,13	3222,68
419,34	3162,27
419,55	3062,33
419,75	3129,40
419,96	3167,08
420,17	3374,75
420,37	3431,68
420,58	3404,03
420,79	3620,19
420,99	4240,63
421,20	4680,73
421,41	5277,72
421,61	5874,60
421,82	6018,57
422,03	6252,14
422,23	5775,48
422,44	5432,75
422,65	4815,39
422,85	4307,19
423,06	3909,16
423,26	3752,49
423,47	3577,90
423,68	3295,59
423,88	3123,46
424,09	2873,50
424,30	2727,38
424,50	2534,77
424,71	2352,91
424,92	2107,87
425,12	1952,23
425,33	1835,49
425,54	1789,00
425,74	1765,86
425,95	1707,90
426,15	1718,55
426,36	1677,70
426,57	1760,13
426,77	1878,70
426,98	2039,26
427,19	2229,11
427,39	2460,33
427,60	2601,84
427,81	2922,76
428,01	3060,48
428,22	3418,57
428,42	3377,92
428,63	3631,36
428,84	3765,29
429,04	3708,15
429,25	3572,37
429,45	3406,39
429,66	3291,80
429,87	3015,33
430,07	2826,40
430,28	2676,08
430,49	2537,64
430,69	2531,90
430,90	2469,75
431,10	2478,04
431,31	2566,72
431,52	2672,39
431,72	2630,82
431,93	2569,89
432,13	2492,99
432,34	2350,45
432,55	2116,99
432,75	2106,64
432,96	2020,63
433,16	1992,98
433,37	2059,64
433,58	2129,27
433,78	2119,55
433,99	2158,46
434,19	2303,96
434,40	2403,39
434,60	2584,54
434,81	2704,34
435,02	2801,83
435,22	2865,83
435,43	2814,63
435,63	2755,44
435,84	2647,92
436,05	2604,20
436,25	2439,95
436,46	2476,61
436,66	2351,78
436,87	2269,56
437,07	2136,85
437,28	2060,05
437,48	2045,61
437,69	1943,83
437,90	1899,08
438,10	1812,25
438,31	1770,06
438,51	1741,80
438,72	1679,74
438,92	1595,57
439,13	1585,33
439,34	1588,10
439,54	1607,86
439,75	1599,77
439,95	1663,57
440,16	1854,33
440,36	1971,17
440,57	2084,22
440,77	2206,69
440,98	2211,91
441,18	2190,20
441,39	2094,56
441,60	2099,68
441,80	1975,78
442,01	1884,13
442,21	1855,77
442,42	1767,50
442,62	1756,34
442,83	1725,72
443,03	1730,43
443,24	1709,03
443,44	1720,09
443,65	1754,39
443,85	1757,05
444,06	1751,93
444,26	1693,77
444,47	1662,64
444,67	1665,72
444,88	1619,74
445,09	1604,28
445,29	1566,70
445,50	1572,02
445,70	1540,58
445,91	1549,60
446,11	1521,03
446,32	1533,72
446,52	1525,94
446,73	1526,76
446,93	1530,04
447,14	1534,85
447,34	1552,97
447,55	1555,33
447,75	1581,03
447,96	1591,37
448,16	1580,21
448,37	1566,70
448,57	1565,98
448,78	1546,73
448,98	1554,10
449,19	1530,04
449,39	1554,00
449,60	1551,44
449,80	1560,24
450,01	1652,40
450,21	1730,64
450,42	1959,19
450,62	2243,55
450,83	2533,13
451,03	2839,71
451,23	3043,90
451,44	3141,79
451,64	3110,15
451,85	2961,26
452,05	2905,04
452,26	2772,95
452,46	2756,36
452,67	2687,65
452,87	2632,87
453,08	2541,12
453,28	2440,46
453,49	2428,89
453,69	2334,48
453,90	2283,08
454,10	2252,97
454,31	2132,55
454,51	2082,58
454,71	1989,70
454,92	1934,51
455,12	1908,60
455,33	1957,86
455,53	1974,86
455,74	2063,12
455,94	2126,82
456,15	2170,03
456,35	2263,01
456,55	2300,38
456,76	2283,59
456,96	2383,53
457,17	2209,14
457,37	2314,31
457,58	2157,74
457,78	2090,36
457,99	2016,94
458,19	1954,58
458,39	1961,95
458,60	1938,71
458,80	1915,16
459,01	1835,90
459,21	1836,62
459,42	1844,71
459,62	1834,47
459,82	1881,88
460,03	1882,90
460,23	1982,74
460,44	1999,43
460,64	2022,68
460,85	2111,46
461,05	2167,77
461,25	2151,70
461,46	2252,46
461,66	2195,22
461,87	2226,04
462,07	2187,44
462,27	2166,44
462,48	2092,20
462,68	2082,89
462,89	2013,26
463,09	1988,07
463,29	1920,89
463,50	1907,48
463,70	1872,46
463,91	1875,63
464,11	1909,53
464,31	1950,59
464,52	1955,61
464,72	2011,51
464,93	1975,37
465,13	1973,12
465,33	1928,16
465,54	1873,17
465,74	1867,65
465,95	1876,25
466,15	1903,89
466,35	1911,47
466,56	1913,21
466,76	1997,59
466,96	2130,40
467,17	2598,57
467,37	3399,22
467,58	4574,65
467,78	5851,35
467,98	7203,83
468,19	7822,42
468,39	8282,29
468,59	8006,74
468,80	7218,48
469,00	6331,09
469,21	5536,38
469,41	5041,28
469,61	4805,46
469,82	4379,99
470,02	4235,71
470,22	4144,58
470,43	3837,48
470,63	3517,49
470,83	3526,40
471,04	3222,79
471,24	3050,86
471,45	2830,70
471,65	2664,20
471,85	2470,36
472,06	2376,26
472,26	2265,57
472,46	2213,55
472,67	2178,01
472,87	2195,52
473,07	2169,11
473,28	2164,19
473,48	2190,61
473,68	2237,61
473,89	2170,95
474,09	2193,07
474,29	2162,35
474,50	2166,44
474,70	2112,27
474,90	2110,02
475,11	2137,06
475,31	2211,81
475,51	2366,33
475,72	2625,50
475,92	2971,40
476,12	3279,62
476,33	3683,37
476,53	3835,03
476,73	3845,57
476,93	3740,31
477,14	3512,57
477,34	3319,45
477,54	3154,18
477,75	3106,15
477,95	3003,96
478,15	2967,81
478,36	2879,65
478,56	2877,29
478,76	2848,01
478,97	2788,41
479,17	2668,40
479,37	2637,27
479,57	2558,94
479,78	2547,47
479,98	2453,77
480,18	2461,15
480,39	2482,24
480,59	2470,36
480,79	2444,25
480,99	2457,46
481,20	2436,16
481,40	2392,44
481,60	2400,22
481,81	2386,70
482,01	2348,71
482,21	2376,26
482,41	2376,67
482,62	2411,18
482,82	2378,41
483,02	2421,31
483,23	2448,76
483,43	2450,50
483,63	2431,35
483,83	2475,58
484,04	2502,82
484,24	2514,29
484,44	2537,33
484,64	2539,69
484,85	2593,04
485,05	2631,74
485,25	2669,53
485,45	2653,96
485,66	2691,24
485,86	2643,93
486,06	2612,90
486,26	2660,11
486,47	2627,85
486,67	2653,25
486,87	2637,07
487,07	2705,16
487,28	2657,55
487,48	2687,04
487,68	2713,05
487,88	2724,31
488,09	2728,30
488,29	2715,40
488,49	2771,31
488,69	2773,46
488,90	2864,49
489,10	2879,85
489,30	2952,15
489,50	3093,97
489,71	3173,84
489,91	3273,37
490,11	3286,07
490,31	3324,26
490,52	3265,79
490,72	3221,86
490,92	3211,83
491,12	3138,20
491,32	3114,65
491,53	3078,92
491,73	3059,26
491,93	3092,54
492,13	3037,04
492,33	3016,56
492,54	3014,71
492,74	3021,98
492,94	2991,26
493,14	3011,54
493,35	2962,80
493,55	3012,46
493,75	3082,81
493,95	3151,31
494,15	3247,26
494,36	3395,02
494,56	3509,19
494,76	3533,36
494,96	3498,85
495,16	3468,03
495,37	3415,91
495,57	3310,34
495,77	3265,69
495,97	3264,15
496,17	3259,96
496,37	3231,08
496,58	3215,00
496,78	3197,49
496,98	3246,64
497,18	3271,73
497,38	3287,50
497,59	3342,18
497,79	3471,92
497,99	3952,89
498,19	6208,01
498,39	10485,70
498,59	18390,66
498,80	29604,21
499,00	42108,08
499,20	52197,81
499,40	58894,97
499,60	61394,52
499,80	58272,29
500,01	52029,06
500,21	44529,91
500,41	37611,77
500,61	32818,90
500,81	29195,43
501,01	26228,75
501,22	24061,28
501,42	21827,56
501,62	19757,06
501,82	18086,94
502,02	16062,32
502,22	13966,53
502,42	11954,81
502,63	9956,81
502,83	8047,70
503,03	6354,34
503,23	5149,21
503,43	4305,24
503,63	3849,36
503,83	3629,31
504,04	3538,79
504,24	3451,34
504,44	3487,28
504,64	3514,01
504,84	3471,51
505,04	3407,00
505,24	3465,47
505,44	3423,69
505,65	3420,72
505,85	3460,35
506,05	3450,42
506,25	3530,29
506,45	3506,53
506,65	3485,64
506,85	3550,05
507,05	3578,21
507,26	3559,57
507,46	3554,35
507,66	3584,25
507,86	3579,85
508,06	3548,62
508,26	3467,31
508,46	3481,03
508,66	3427,89
508,86	3451,75
509,06	3437,52
509,27	3460,96
509,47	3506,22
509,67	3523,33
509,87	3521,18
510,07	3564,90
510,27	3544,42
510,47	3537,66
510,67	3520,36
510,87	3576,57
511,07	3577,39
511,28	3656,44
511,48	3636,27
511,68	3703,34
511,88	3718,50
512,08	3747,37
512,28	3782,80
512,48	3796,83
512,68	3831,54
512,88	3831,65
513,08	3767,24
513,28	3746,66
513,48	3716,35
513,68	3695,05
513,89	3675,80
514,09	3636,99
514,29	3709,59
514,49	3767,96
514,69	3819,77
514,89	3980,33
515,09	4408,36
515,29	5459,48
515,49	7073,38
515,69	9845,20
515,89	12976,85
516,09	15906,57
516,29	17880,51
516,49	19078,77
516,69	18570,98
516,89	16894,51
517,09	14915,77
517,29	13149,19
517,50	11617,72
517,70	10546,42
517,90	9693,34
518,10	9087,14
518,30	8574,74
518,50	8005,20
518,70	7538,16
518,90	7232,91
519,10	6765,57
519,30	6375,12
519,50	5949,66
519,70	5542,11
519,90	5218,63
520,10	4995,61
520,30	4707,05
520,50	4526,93
520,70	4439,79
520,90	4363,50
521,10	4281,28
521,30	4217,38
521,50	4226,91
521,70	4169,15
521,90	4196,60
522,10	4229,67
522,30	4260,29
522,50	4369,96
522,70	4340,16
522,90	4418,59
523,10	4370,37
523,30	4406,00
523,50	4382,14
523,70	4314,46
523,90	4270,94
524,10	4246,67
524,30	4225,88
524,50	4227,72
524,70	4266,94
524,90	4237,86
525,10	4256,29
525,30	4251,07
525,50	4313,84
525,70	4314,66
525,90	4328,07
526,10	4323,67
526,30	4388,39
526,50	4386,85
526,70	4393,40
526,90	4397,30
527,10	4323,77
527,30	4347,74
527,50	4344,66
527,70	4280,25
527,90	4255,06
528,10	4277,69
528,30	4237,96
528,50	4259,06
528,70	4309,75
528,90	4368,73
529,10	4369,34
529,30	4378,45
529,50	4371,29
529,70	4376,92
529,90	4332,89
530,10	4353,78
530,29	4318,96
530,49	4353,06
530,69	4364,63
530,89	4330,12
531,09	4301,96
531,29	4326,85
531,49	4338,11
531,69	4361,66
531,89	4429,14
532,09	4448,39
532,29	4436,21
532,49	4477,27
532,69	4448,29
532,89	4445,32
533,09	4448,70
533,29	4441,33
533,49	4481,98
533,68	4448,60
533,88	4500,10
534,08	4524,17
534,28	4520,69
534,48	4474,91
534,68	4534,31
534,88	4440,10
535,08	4485,46
535,28	4515,05
535,48	4475,22
535,68	4561,44
535,88	4538,91
536,08	4603,83
536,27	4648,89
536,47	4656,26
536,67	4682,17
536,87	4672,95
537,07	4676,95
537,27	4723,33
537,47	4766,95
537,67	4779,04
537,87	4803,31
538,07	4827,27
538,27	4831,26
538,46	4865,15
538,66	4870,17
538,86	4833,82
539,06	4878,57
539,26	4901,81
539,46	4911,13
539,66	4908,26
539,86	4983,32
540,06	5004,52
540,25	4984,86
540,45	4996,53
540,65	4975,64
540,85	5046,71
541,05	4999,30
541,25	4938,27
541,45	4942,57
541,65	4998,99
541,85	4998,07
542,04	5048,04
542,24	5084,59
542,44	5151,87
542,64	5172,45
542,84	5174,60
543,04	5224,78
543,24	5172,35
543,43	5237,68
543,63	5221,30
543,83	5178,70
544,03	5161,70
544,23	5275,98
544,43	5293,90
544,63	5393,12
544,82	5424,56
545,02	5415,85
545,22	5504,84
545,42	5502,38
545,62	5546,72
545,82	5574,57
546,02	5616,76
546,21	5590,34
546,41	5671,95
546,61	5601,19
546,81	5753,36
547,01	5729,19
547,21	5771,38
547,40	5799,13
547,60	5761,65
547,80	5730,52
548,00	5681,88
548,20	5700,73
548,40	5682,19
548,59	5728,48
548,79	5800,26
548,99	5801,18
549,19	5743,84
549,39	5855,25
549,59	5877,16
549,78	6044,48
549,98	6219,89
550,18	6352,70
550,38	6504,04
550,58	6633,37
550,77	6801,00
550,97	6840,52
551,17	6805,50
551,37	6864,79
551,57	6934,83
551,76	6952,65
551,96	7030,47
552,16	7105,02
552,36	7164,31
552,56	7239,88
552,75	7324,05
552,95	7461,26
553,15	7483,99
553,35	7544,51
553,55	7521,47
553,74	7792,73
553,94	7751,97
554,14	7893,28
554,34	7908,74
554,54	8172,11
554,73	8271,64
554,93	8324,89
555,13	8457,19
555,33	8385,10
555,53	8561,74
555,72	8547,30
555,92	8723,02
556,12	8944,50
556,32	9168,65
556,51	9356,86
556,71	9579,89
556,91	9711,37
557,11	9870,39
557,30	9949,44
557,50	9956,81
557,70	10020,81
557,90	10262,78
558,10	10286,74
558,29	10360,67
558,49	10553,18
558,69	10518,57
558,89	10474,64
559,08	10652,41
559,28	10714,56
559,48	10842,77
559,68	11018,07
559,87	11082,99
560,07	11225,94
560,27	11431,35
560,47	11525,66
560,66	11724,52
560,86	11910,27
561,06	12083,32
561,25	12328,98
561,45	12559,48
561,65	12795,50
561,85	12810,66
562,04	12876,50
562,24	12977,06
562,44	13104,34
562,64	13197,83
562,83	13309,75
563,03	13383,48
563,23	13600,25
563,42	13831,88
563,62	14109,28
563,82	14143,68
564,02	14487,13
564,21	14748,45
564,41	14878,60
564,61	15100,90
564,80	15451,21
565,00	15846,77
565,20	16204,86
565,40	16495,98
565,59	17060,81
565,79	17484,74
565,99	17835,76
566,18	18186,47
566,38	18428,24
566,58	18823,39
566,78	19111,54
566,97	19505,16
567,17	19984,39
567,37	20485,32
567,56	21312,39
567,76	22879,60
567,96	27071,89
568,15	43253,30
568,35	63908,81
568,55	63866,01
568,74	63908,20
568,94	63935,95
569,14	63962,88
569,33	63969,43
569,53	63969,64
569,73	63943,52
569,92	63787,67
570,12	63904,10
570,32	63933,80
570,52	63961,65
570,71	63925,40
570,91	63781,22
571,11	63949,36
571,30	63889,66
571,50	63917,31
571,70	63826,48
571,89	63837,75
572,09	63816,34
572,28	63985,92
572,48	64046,64
572,68	64014,90
572,87	63945,26
573,07	63875,43
573,27	63819,11
573,46	63851,47
573,66	63946,19
573,86	63928,57
574,05	63944,34
574,25	63992,47
574,45	63953,97
574,64	63871,33
574,84	63716,30
575,04	63910,55
575,23	63857,10
575,43	63912,29
575,62	63894,68
575,82	63858,23
576,02	64011,62
576,21	63941,27
576,41	63973,83
576,61	63900,82
576,80	63896,52
577,00	63982,64
577,19	63991,34
577,39	63935,74
577,59	63875,94
577,78	63864,57
577,98	63901,64
578,18	63903,79
578,37	63912,70
578,57	63866,52
578,76	63866,52
578,96	63927,24
579,16	63924,89
579,35	63890,38
579,55	63996,87
579,74	63803,03
579,94	64010,49
580,14	63782,86
580,33	63908,61
580,53	63941,68
580,72	63883,11
580,92	63898,47
581,12	63984,79
581,31	63895,60
581,51	63833,85
581,70	63941,37
581,90	63970,15
582,10	63841,43
582,29	63874,71
582,49	63935,54
582,68	63965,23
582,88	63934,82
583,07	63687,94
583,27	63868,47
583,47	63746,71
583,66	63894,58
583,86	63925,91
584,05	63914,03
584,25	63930,01
584,44	63848,29
584,64	63811,33
584,84	64037,73
585,03	63910,86
585,23	63991,04
585,42	63969,43
585,62	63973,94
585,81	63984,18
586,01	63889,97
586,20	63884,23
586,40	63906,25
586,60	63773,34
586,79	63896,73
586,99	63879,22
587,18	63889,66
587,38	64034,86
587,57	64050,22
587,77	63945,37
587,96	63819,31
588,16	63931,13
588,35	63931,13
588,55	63817,68
588,75	63807,23
588,94	63874,30
589,14	63939,33
589,33	63952,94
589,53	63826,69
589,72	63940,55
589,92	63929,49
590,11	63862,73
590,31	63810,71
590,50	63762,89
590,70	63769,96
590,89	63798,63
591,09	63830,07
591,28	63733,61
591,48	63925,91
591,67	63779,28
591,87	63983,87
592,06	63900,52
592,26	63922,02
592,45	63866,72
592,65	63821,05
592,84	63973,32
593,04	63955,91
593,23	63907,27
593,43	63969,94
593,62	63873,89
593,82	63854,44
594,01	63974,76
594,21	63851,26
594,40	63931,75
594,60	64006,19
594,79	63877,07
594,99	63848,80
595,18	63978,34
595,38	63821,67
595,57	63890,89
595,77	63835,60
595,96	63802,32
596,16	63864,68
596,35	63881,88
596,55	63857,51
596,74	63843,17
596,94	63897,44
597,13	63850,34
597,33	63931,13
597,52	63879,22
597,72	63917,41
597,91	63740,26
598,11	63947,31
598,30	63903,90
598,50	63908,09
598,69	63931,65
598,88	63917,41
599,08	63889,25
599,27	63892,43
599,47	63971,99
599,66	63836,93
599,86	63887,51
600,05	63882,08
600,25	63880,55
600,44	63837,64
600,64	63769,45
600,83	63877,17
601,02	63779,07
601,22	63852,08
601,41	63815,32
601,61	63880,45
601,80	63846,55
602,00	63877,48
602,19	63882,70
602,38	63914,24
602,58	63908,91
602,77	63897,96
602,97	63995,75
603,16	63867,95
603,36	63848,91
603,55	63826,99
603,74	63893,76
603,94	63926,32
604,13	63772,42
604,33	63866,11
604,52	63926,22
604,72	63870,92
604,91	63895,29
605,10	63929,49
605,30	63899,59
605,49	63760,95
605,69	63799,86
605,88	63836,01
606,07	63780,20
606,27	63711,49
606,46	63803,85
606,66	63853,21
606,85	63943,93
607,04	63890,17
607,24	63869,28
607,43	63773,64
607,63	63908,09
607,82	63839,38
608,01	63881,88
608,21	63884,75
608,40	63823,82
608,60	63861,71
608,79	63848,19
608,98	63853,00
609,18	63783,78
609,37	63704,94
609,57	63819,93
609,76	63757,16
609,95	63894,58
610,15	63792,18
610,34	63792,18
610,53	63939,43
610,73	63832,01
610,92	63846,86
611,11	63866,93
611,31	63793,71
611,50	63902,26
611,70	63748,25
611,89	63840,92
612,08	63809,59
612,28	63862,42
612,47	63751,73
612,66	63862,22
612,86	63655,17
613,05	63788,08
613,24	63730,02
613,44	63774,67
613,63	63835,80
613,82	63755,62
614,02	63795,46
614,21	63852,49
614,41	63875,02
614,60	63735,25
614,79	63867,34
614,99	63722,85
615,18	63845,53
615,37	63758,28
615,57	63837,44
615,76	63859,86
615,95	63826,17
616,15	63807,64
616,34	63662,54
616,53	63696,54
616,73	63790,34
616,92	63814,19
617,11	63810,41
617,30	63823,61
617,50	63804,57
617,69	63736,47
617,88	63710,26
618,08	63695,72
618,27	63789,31
618,46	63821,46
618,66	63860,17
618,85	63861,20
619,04	63770,88
619,24	63673,81
619,43	63722,75
619,62	63838,05
619,82	63808,26
620,01	63841,84
620,20	63894,27
620,39	63824,54
620,59	63735,55
620,78	63764,33
620,97	63693,26
621,17	63754,50
621,36	63770,98
621,55	63837,13
621,74	63812,04
621,94	63932,36
622,13	63616,57
622,32	63802,93
622,52	63848,50
622,71	63754,70
622,90	63663,26
623,09	63822,90
623,29	63832,42
623,48	63796,58
623,67	63856,28
623,86	63698,28
624,06	63908,30
624,25	63772,83
624,44	63651,59
624,64	63739,14
624,83	63878,81
625,02	63768,93
625,21	63672,68
625,41	63807,54
625,60	63774,87
625,79	63932,87
625,98	63862,42
626,18	63794,84
626,37	63676,37
626,56	63799,24
626,75	63830,58
626,95	63782,55
627,14	63844,71
627,33	63790,85
627,52	63840,82
627,72	63795,15
627,91	63626,40
628,10	63792,38
628,29	63760,84
628,49	63785,11
628,68	63657,52
628,87	63802,42
629,06	63717,84
629,25	63820,13
629,45	63765,66
629,64	63638,99
629,83	63778,97
630,02	63843,79
630,22	63720,70
630,41	63843,28
630,60	63759,82
630,79	63806,72
630,98	63812,66
631,18	63875,94
631,37	63915,77
631,56	63831,40
631,75	63697,05
631,94	63817,37
632,14	63849,11
632,33	63876,25
632,52	63902,56
632,71	63173,28
632,90	63785,83
633,10	63803,34
633,29	63806,10
633,48	63818,19
633,67	63821,16
633,86	63705,55
634,06	63830,07
634,25	63757,06
634,44	63662,64
634,63	63766,37
634,82	63851,26
635,02	63783,07
635,21	63827,61
635,40	63847,06
635,59	63818,39
635,78	63725,21
635,97	63783,99
636,17	63785,63
636,36	63734,43
636,55	63742,11
636,74	63751,42
636,93	63761,36
637,12	63713,74
637,32	63770,78
637,51	63844,50
637,70	63677,90
637,89	63816,96
638,08	63826,79
638,27	63661,83
638,47	63748,25
638,66	63732,38
638,85	63837,23
639,04	63786,44
639,23	63714,05
639,42	63727,16
639,62	63666,74
639,81	63719,07
640,00	63698,38
640,19	63746,71
640,38	63772,72
640,57	63714,25
640,76	63681,69
640,95	63802,93
641,15	63870,31
641,34	63674,93
641,53	63776,41
641,72	63668,28
641,91	63678,21
642,10	63830,07
642,29	63697,26
642,49	63817,78
642,68	63820,44
642,87	63795,66
643,06	63757,67
643,25	63732,28
643,44	63816,55
643,63	63765,86
643,82	63764,43
644,01	63785,52
644,21	63757,57
644,40	63667,15
644,59	63779,79
644,78	63772,01
644,97	63540,18
645,16	63726,85
645,35	63741,59
645,54	63778,46
645,73	63726,64
645,92	63717,12
646,12	63780,71
646,31	63799,65
646,50	63757,36
646,69	63718,35
646,88	63833,65
647,07	63703,40
647,26	63779,99
647,45	63775,28
647,64	63719,68
647,83	63805,70
648,02	63688,55
648,22	63730,13
648,41	63823,21
648,60	63783,07
648,79	63784,29
648,98	63659,68
649,17	63770,57
649,36	63882,70
649,55	63774,46
649,74	63689,98
649,93	63827,61
650,12	63736,47
650,31	63693,36
650,50	63706,27
650,69	63700,94
650,88	63640,83
651,08	63797,71
651,27	63643,60
651,46	63667,66
651,65	63817,98
651,84	63809,48
652,03	63790,03
652,22	63813,78
652,41	63794,94
652,60	63578,17
652,79	63638,27
652,98	63737,40
653,17	63745,69
653,36	63737,81
653,55	63711,08
653,74	63667,46
653,93	63757,26
654,12	63786,03
654,31	63823,72
654,50	63710,98
654,69	63645,13
654,88	63693,16
655,07	63815,22
655,26	63795,97
655,45	63805,70
655,64	63846,04
655,83	63788,08
656,02	63711,18
656,21	63826,58
656,40	63851,47
656,59	63723,88
656,78	63822,18
656,97	63810,30
657,17	63688,14
657,36	63826,89
657,55	63599,46
657,74	63733,81
657,93	63727,77
658,12	63742,72
658,31	63750,20
658,50	63797,91
658,69	63833,96
658,87	63712,10
659,06	63745,89
659,25	63746,30
659,44	63815,42
659,63	63671,55
659,82	63708,52
660,01	63709,03
660,20	63764,74
660,39	63669,40
660,58	63793,51
660,77	63738,21
660,96	63710,57
661,15	63723,57
661,34	63755,83
661,53	63750,09
661,72	63713,23
661,91	63806,41
662,10	63766,89
662,29	63873,07
662,48	63797,20
662,67	63782,35
662,86	63790,44
663,05	63778,05
663,24	63680,05
663,43	63750,09
663,62	63600,28
663,81	63799,65
664,00	63613,29
664,19	63838,87
664,38	63752,45
664,57	63783,88
664,76	63732,48
664,94	63804,88
665,13	63780,20
665,32	63826,28
665,51	63769,45
665,70	63820,65
665,89	63719,89
666,08	63711,90
666,27	63812,04
666,46	63724,90
666,65	63709,34
666,84	63867,85
667,03	63793,00
667,22	63817,47
667,41	63647,69
667,60	63773,85
667,78	63725,62
667,97	63716,20
668,16	63679,34
668,35	63752,45
668,54	63759,00
668,73	63786,55
668,92	63758,18
669,11	63791,36
669,30	63757,88
669,49	63800,37
669,68	63652,81
669,86	63776,82
670,05	63782,45
670,24	63831,09
670,43	63746,51
670,62	63688,04
670,81	63782,76
671,00	63774,67
671,19	63649,03
671,38	63763,71
671,57	63748,25
671,75	63798,22
671,94	63698,48
672,13	63697,66
672,32	63821,05
672,51	63779,69
672,70	63689,27
672,89	63781,43
673,08	46646,79
673,26	63270,46
673,45	4549,87
673,64	28393,76
673,83	4423,82
674,02	4385,93
674,21	4351,32
674,40	4328,89
674,59	4422,28
674,77	4607,62
674,96	4858,29
675,15	5202,35
675,34	5502,69
675,53	5705,33
675,72	5756,12
675,91	5657,31
676,09	5443,50
676,28	5236,55
676,47	4996,53
676,66	4751,39
676,85	4629,02
677,04	4511,37
677,22	4331,35
677,41	4218,10
677,60	4166,39
677,79	4031,12
677,98	3968,66
678,17	3820,08
678,36	3758,23
678,54	3697,51
678,73	3572,27
678,92	3490,97
679,11	3458,10
679,30	3416,42
679,48	3396,25
679,67	3320,99
679,86	3256,88
680,05	3226,47
680,24	3205,58
680,43	3187,87
680,61	3200,05
680,80	3178,14
680,99	3143,02
681,18	3121,82
681,37	3075,64
681,55	3055,88
681,74	3005,91
681,93	3029,46
682,12	3004,68
682,31	2982,05
682,49	2932,18
682,68	2958,70
682,87	2922,96
683,06	2851,18
683,25	2853,54
683,43	2842,07
683,62	2767,01
683,81	2733,73
684,00	2775,71
684,19	2742,43
684,37	2729,23
684,56	2714,99
684,75	2699,53
684,94	2676,80
685,12	2694,21
685,31	2684,99
685,50	2679,77
685,69	2643,31
685,88	2621,50
686,06	2569,28
686,25	2607,37
686,44	2741,62
686,63	2993,00
686,81	3294,57
687,00	3561,32
687,19	3829,80
687,38	4022,72
687,56	4021,60
687,75	3914,39
687,94	3864,82
688,13	3646,41
688,31	3504,59
688,50	3387,44
688,69	3234,66
688,88	3137,39
689,06	3028,64
689,25	2985,12
689,44	2919,79
689,63	2840,43
689,81	2790,56
690,00	2737,62
690,19	2690,21
690,38	2622,73
690,56	2580,75
690,75	2538,76
690,94	2499,34
691,13	2467,80
691,31	2399,71
691,50	2372,26
691,69	2313,18
691,87	2292,80
692,06	2238,02
692,25	2223,27
692,44	2197,88
692,62	2212,11
692,81	2267,31
693,00	2310,21
693,18	2407,28
693,37	2541,43
693,56	2668,71
693,75	2821,08
693,93	2904,12
694,12	2949,38
694,31	2944,36
694,49	2908,53
694,68	2892,14
694,87	2822,41
695,05	2795,48
695,24	2929,82
695,43	3592,24
695,62	7164,10
695,80	17407,53
695,99	35391,77
696,18	58551,12
696,36	63634,79
696,55	63775,90
696,74	63862,63
696,92	63638,58
697,11	63726,95
697,30	63688,55
697,48	63764,94
697,67	63810,71
697,86	63772,52
698,04	63857,51
698,23	63781,02
698,42	58297,58
698,60	32469,83
698,79	26833,31
698,98	23103,24
699,16	19761,98
699,35	16598,68
699,54	13435,39
699,72	10481,09
699,91	8047,60
700,10	6046,01
700,28	4579,77
700,47	3656,24
700,66	3003,55
700,84	2593,14
701,03	2355,27
701,21	2180,57
701,40	2102,75
701,59	1976,90
701,77	1956,01
701,96	1955,71
702,15	1992,37
702,33	2113,09
702,52	2334,99
702,71	2607,99
702,89	2825,99
703,08	3051,27
703,26	3115,27
703,45	3131,04
703,64	2992,08
703,82	2863,06
704,01	2719,09
704,20	2600,82
704,38	2496,58
704,57	2385,58
704,75	2353,94
704,94	2263,11
705,13	2252,56
705,31	2289,42
705,50	2517,98
705,68	4113,86
705,87	9147,87
706,06	19085,12
706,24	33756,98
706,43	49066,77
706,61	61016,98
706,80	63804,88
706,99	63716,51
707,17	63631,52
707,36	63684,76
707,54	56343,20
707,73	49040,56
707,92	41685,28
708,10	35055,80
708,29	29439,35
708,47	24836,23
708,66	21087,32
708,84	18040,25
709,03	15515,62
709,22	13509,43
709,40	11488,08
709,59	9461,82
709,77	7300,50
709,96	5482,62
710,14	4121,43
710,33	3254,02
710,52	2708,95
710,70	2399,81
710,89	2194,91
711,07	2056,57
711,26	1981,20
711,44	1869,69
711,63	1835,18
711,81	1771,29
712,00	1819,62
712,19	1744,97
712,37	1760,23
712,56	1782,24
712,74	1752,65
712,93	1769,24
713,11	1723,06
713,30	1693,77
713,48	1733,40
713,67	1965,33
713,85	2565,59
714,04	3675,90
714,22	5205,83
714,41	6823,12
714,59	8077,80
714,78	9045,16
714,97	9227,43
715,15	8827,67
715,34	8042,58
715,52	7266,09
715,71	6465,23
715,89	5684,55
716,08	5091,15
716,26	4473,17
716,45	4024,77
716,63	3634,22
716,82	3322,83
717,00	3127,86
717,19	2831,32
717,37	2595,60
717,56	2302,22
717,74	2116,27
717,93	1936,87
718,11	1821,46
718,30	1735,86
718,48	1692,75
718,67	1711,08
718,85	1647,59
719,04	1631,92
719,22	1645,85
719,41	1645,34
719,59	1635,41
719,78	1633,56
719,96	1666,43
720,15	1705,75
720,33	1781,84
720,52	1786,24
720,70	1840,30
720,88	1843,89
721,07	1854,74
721,25	1798,63
721,44	1733,71
721,62	1712,20
721,81	1664,90
721,99	1623,73
722,18	1604,79
722,36	1581,03
722,55	1591,99
722,73	1539,66
722,92	1540,28
723,10	1522,36
723,28	1482,52
723,47	1509,86
723,65	1465,53
723,84	1497,88
724,02	1459,18
724,21	1438,49
724,39	1458,97
724,58	1476,79
724,76	1494,10
724,94	1490,41
725,13	1484,47
725,31	1501,47
725,50	1534,65
725,68	1513,86
725,87	1558,71
726,05	1805,69
726,23	2868,90
726,42	5249,66
726,60	9225,48
726,79	14364,96
726,97	19427,13
727,16	23325,34
727,34	26085,59
727,52	26619,40
727,71	25133,90
727,89	22420,14
728,08	19726,24
728,26	17079,85
728,44	14596,90
728,63	12793,87
728,81	10884,44
729,00	9487,83
729,18	8165,35
729,36	6882,10
729,55	5659,66
729,73	4492,53
729,92	3530,39
730,10	2790,56
730,28	2356,09
730,47	2054,73
730,65	1915,87
730,84	1879,93
731,02	1844,30
731,20	1828,32
731,39	1855,25
731,57	1853,31
731,75	1812,86
731,94	1709,54
732,12	1688,24
732,31	1651,99
732,49	1617,38
732,67	1588,92
732,86	1539,15
733,04	1505,05
733,22	1488,67
733,41	1471,06
733,59	1463,17
733,78	1416,68
733,96	1407,77
734,14	1468,70
734,33	1504,54
734,51	1596,19
734,69	1664,38
734,88	1855,66
735,06	1950,18
735,24	2076,85
735,43	2170,95
735,61	2185,59
735,79	2191,33
735,98	2175,35
736,16	2231,67
736,34	2344,72
736,53	2649,97
736,71	2972,83
736,89	3383,45
737,08	4492,42
737,26	8947,27
737,44	19832,73
737,63	38242,74
737,81	62143,77
737,99	63721,22
738,18	63744,67
738,36	63635,41
738,54	63775,28
738,73	63723,88
738,91	63663,36
739,09	63818,70
739,28	63820,85
739,46	63816,65
739,64	63803,95
739,82	63729,31
740,01	63808,15
740,19	63572,94
740,37	50477,51
740,56	18189,55
740,74	12454,41
740,92	8585,70
741,11	6101,21
741,29	4410,92
741,47	3459,33
741,65	2816,47
741,84	2445,68
742,02	2210,88
742,20	2021,96
742,39	1926,01
742,57	1922,22
742,75	1880,44
742,93	1890,79
743,12	1918,95
743,30	1936,97
743,48	1958,78
743,67	2008,65
743,85	1954,27
744,03	1892,63
744,21	1837,03
744,40	1785,62
744,58	1727,67
744,76	1674,73
744,94	1638,78
745,13	1581,65
745,31	1564,44
745,49	1535,77
745,67	1508,43
745,86	1480,27
746,04	1494,71
746,22	1524,71
746,40	1566,80
746,59	1591,78
746,77	1648,21
746,95	1697,66
747,13	1758,08
747,32	1767,81
747,50	1825,87
747,68	1870,10
747,86	1894,47
748,05	1932,16
748,23	2001,99
748,41	2041,62
748,59	2110,12
748,77	2171,36
748,96	2682,33
749,14	4889,42
749,32	11482,65
749,50	23434,91
749,69	40903,57
749,87	59971,90
750,05	63765,45
750,23	63848,91
750,41	63827,61
750,60	63732,79
750,78	63857,00
750,96	63769,86
751,14	63763,20
751,32	63793,41
751,51	63850,85
751,69	63862,22
751,87	63912,29
752,05	63765,76
752,23	63752,96
752,42	63809,18
752,60	63755,42
752,78	63778,35
752,96	63838,97
753,14	63788,29
753,33	63859,86
753,51	63833,65
753,69	63805,49
753,87	55982,66
754,05	9675,53
754,23	3617,12
754,42	2988,09
754,60	2567,33
754,78	2331,92
754,96	2162,55
755,14	2017,56
755,32	1964,41
755,51	1861,19
755,69	1837,34
755,87	1802,62
756,05	1735,55
756,23	1732,38
756,41	1727,05
756,60	1673,40
756,78	1678,62
756,96	1669,50
757,14	1677,08
757,32	1680,56
757,50	1704,42
757,68	1684,97
757,87	1699,20
758,05	1710,26
758,23	1705,55
758,41	1728,18
758,59	1753,68
758,77	1780,09
758,95	1779,07
759,14	1768,63
759,32	1849,21
759,50	1858,22
759,68	1894,99
759,86	1940,14
760,04	1989,91
760,22	2023,39
760,40	2126,71
760,59	2314,51
760,77	2471,90
760,95	2686,94
761,13	2822,10
761,31	2986,76
761,49	3118,75
761,67	3293,24
761,85	3848,95
762,03	6516,43
762,22	19445,87
762,40	56889,50
762,58	63931,24
762,76	63911,06
762,94	63904,51
763,12	63880,24
763,30	63811,12
763,48	63879,11
763,66	63958,27
763,84	63968,41
764,02	63921,92
764,21	63923,04
764,39	63707,90
764,57	63905,43
764,75	63921,10
764,93	63843,58
765,11	63901,13
765,29	63871,23
765,47	63890,69
765,65	63868,47
765,83	63854,33
766,01	63856,59
766,19	63806,10
766,37	63678,00
766,56	63806,72
766,74	63865,50
766,92	63862,42
767,10	63879,63
767,28	63832,42
767,46	63811,53
767,64	63858,53
767,82	63784,60
768,00	63846,65
768,18	63866,83
768,36	63746,30
768,54	63676,57
768,72	63708,01
768,90	63885,67
769,08	63902,46
769,26	63772,52
769,44	63821,87
769,62	63786,34
769,80	63716,92
769,98	63764,84
770,16	63857,71
770,34	63810,61
770,52	63857,10
770,71	63774,05
770,89	63822,18
771,07	63651,07
771,25	63804,06
771,43	63708,01
771,61	63734,63
771,79	63796,07
771,97	63795,35
772,15	63779,17
772,33	63782,66
772,51	63688,86
772,69	63864,78
772,87	63762,18
773,05	63798,12
773,23	63738,01
773,41	63777,64
773,59	63701,15
773,77	63811,12
773,95	63748,04
774,13	63757,26
774,31	63717,53
774,49	63751,12
774,67	63829,55
774,85	63821,26
775,03	63808,56
775,21	63782,86
775,39	63876,35
775,57	63875,94
775,75	63709,13
775,93	63849,83
776,10	63854,44
776,28	63756,13
776,46	63869,69
776,64	63820,85
776,82	63857,82
777,00	62132,50
777,18	10335,69
777,36	1702,78
777,54	1497,37
777,72	1438,80
777,90	1396,61
778,08	1394,05
778,26	1336,30
778,44	1355,65
778,62	1339,17
778,80	1330,57
778,98	1337,32
779,16	1356,88
779,34	1395,79
779,52	1472,18
779,70	1453,24
779,88	1470,95
780,05	1469,11
780,23	1468,09
780,41	1406,14
780,59	1403,47
780,77	1369,78
780,95	1333,84
781,13	1324,11
781,31	1293,39
781,49	1245,78
781,67	1259,81
781,85	1243,83
782,03	1237,89
782,21	1202,26
782,39	1246,39
782,56	1191,10
782,74	1216,49
782,92	1228,17
783,10	1189,97
783,28	1199,19
783,46	1229,50
783,64	1214,65
783,82	1235,74
784,00	1208,92
784,18	1208,10
784,35	1267,90
784,53	1250,39
784,71	1280,90
784,89	1302,61
785,07	1330,36
785,25	1318,69
785,43	1389,34
785,61	1376,64
785,79	1404,91
785,96	1400,30
786,14	1403,06
786,32	1402,76
786,50	1375,31
786,68	1322,37
786,86	1347,56
787,04	1292,06
787,22	1261,96
787,39	1277,22
787,57	1254,18
787,75	1242,91
787,93	1272,91
788,11	1306,91
788,29	1358,93
788,47	1412,59
788,65	1465,83
788,82	1460,82
789,00	1529,22
789,18	1538,74
789,36	1485,49
789,54	1440,03
789,72	1443,20
789,89	1382,17
790,07	1383,61
790,25	1401,43
790,43	1415,86
790,61	1402,04
790,79	1429,17
790,96	1486,83
791,14	1473,82
791,32	1450,58
791,50	1495,43
791,68	1498,81
791,86	1508,43
792,03	1527,17
792,21	1585,44
792,39	1626,09
792,57	1678,21
792,75	1668,58
792,93	1757,67
793,10	1950,79
793,28	2926,96
793,46	6328,02
793,64	15566,82
793,82	31022,94
793,99	52426,98
794,17	63924,99
794,35	63836,72
794,53	63828,73
794,71	63975,78
794,88	63899,29
795,06	63840,41
795,24	63914,65
795,42	63872,97
795,60	63793,82
795,77	41971,89
795,95	23932,67
796,13	19936,26
796,31	16664,63
796,49	13982,30
796,66	11127,33
796,84	8716,87
797,02	6628,15
797,20	5045,38
797,37	3931,69
797,55	3222,79
797,73	2741,51
797,91	2452,54
798,08	2289,53
798,26	2220,20
798,44	2157,74
798,62	2159,38
798,80	2248,57
798,97	2541,12
799,15	3553,64
799,33	6899,09
799,51	13959,98
799,68	24168,08
799,86	37628,05
800,04	49792,37
800,22	62869,67
800,39	63907,38
800,57	63736,37
800,75	63840,61
800,93	63812,97
801,10	63813,27
801,28	63724,19
801,46	63911,37
801,63	63834,06
801,81	63825,36
801,99	63883,31
802,17	63871,95
802,34	63747,43
802,52	63901,74
802,70	62268,80
802,88	27514,36
803,05	16827,24
803,23	13754,26
803,41	11071,83
803,58	8663,42
803,76	6669,21
803,94	5182,18
804,12	4203,46
804,29	3484,21
804,47	3094,48
804,65	2819,13
804,82	2617,71
805,00	2525,96
805,18	2488,49
805,35	2448,35
805,53	2369,30
805,71	2362,95
805,89	2372,16
806,06	2324,96
806,24	2336,32
806,42	2319,63
806,59	2366,12
806,77	2391,21
806,95	2471,49
807,12	2491,15
807,30	2598,16
807,48	2672,91
807,65	2764,76
807,83	2914,46
808,01	3014,92
808,18	3226,47
808,36	3485,54
808,54	3777,58
808,71	4437,33
808,89	7197,79
809,07	16213,97
809,24	33090,98
809,42	56905,27
809,60	63937,17
809,77	63850,85
809,95	63804,06
810,13	63895,91
810,30	63869,28
810,48	63721,93
810,66	63867,65
810,83	63816,75
811,01	63841,74
811,18	63862,32
811,36	64002,20
811,54	63887,51
811,71	63842,35
811,89	63825,66
812,07	63923,45
812,24	63725,52
812,42	63927,96
812,59	63868,47
812,77	63847,99
812,95	63832,32
813,12	63856,18
813,30	63932,77
813,48	63909,42
813,65	63853,92
813,83	63824,13
814,00	63800,06
814,18	63806,82
814,36	63892,53
814,53	63876,15
814,71	63885,77
814,88	63814,09
815,06	63946,08
815,24	63818,29
815,41	63959,60
815,59	63896,42
815,76	63946,70
815,94	63778,35
816,12	63908,81
816,29	63800,06
816,47	63883,31
816,64	63730,84
816,82	63947,72
817,00	63817,16
817,17	63908,61
817,35	63697,46
817,52	63898,47
817,70	63852,70
817,87	63812,35
818,05	63916,80
818,23	63890,28
818,40	63778,97
818,58	63861,81
818,75	63927,24
818,93	63900,41
819,10	63849,21
819,28	63896,22
819,46	63837,03
819,63	63900,21
819,81	63779,69
819,98	63992,67
820,16	63789,93
820,33	63983,97
820,51	63728,08
820,68	63840,82
820,86	63848,70
821,03	63764,94
821,21	63829,25
821,39	63730,13
821,56	63848,19
821,74	63922,02
821,91	63945,26
822,09	63906,97
822,26	63914,75
822,44	63966,26
822,61	63971,27
822,79	63837,85
822,96	63897,03
823,14	63949,87
823,31	63941,07
823,49	63812,45
823,66	63869,18
823,84	63893,35
824,01	63904,00
824,19	63983,15
824,36	63858,53
824,54	63824,64
824,71	63786,44
824,89	63858,02
825,06	63760,33
825,24	63893,96
825,41	63846,24
825,59	63879,52
825,76	63821,05
825,94	63897,44
826,11	63814,71
826,29	63904,82
826,46	63864,88
826,64	63775,18
826,81	63806,31
826,99	63871,43
827,16	63920,79
827,34	63950,59
827,51	63860,68
827,69	63693,77
827,86	63864,88
828,04	63871,43
828,21	63888,33
828,39	63829,55
828,56	63890,99
828,74	63814,50
828,91	63879,01
829,09	63654,86
829,26	63910,86
829,43	63826,48
829,61	63878,60
829,78	63901,44
829,96	63879,42
830,13	63937,69
830,31	63835,49
830,48	63855,97
830,66	63900,52
830,83	63943,22
831,01	63936,56
831,18	63902,77
831,35	63908,30
831,53	63838,97
831,70	63819,62
831,88	63702,99
832,05	63858,02
832,23	63934,82
832,40	63825,46
832,57	63814,19
832,75	63920,28
832,92	63831,40
833,10	63741,59
833,27	63859,45
833,45	63921,61
833,62	63902,77
833,79	63850,65
833,97	63940,04
834,14	63873,79
834,32	63826,17
834,49	63947,21
834,66	63897,55
834,84	63944,96
835,01	63803,14
835,19	63987,66
835,36	63956,12
835,53	63758,18
835,71	63852,90
835,88	63847,88
836,06	63850,34
836,23	63739,96
836,40	63960,62
836,58	63939,84
836,75	63869,08
836,93	63929,70
837,10	63868,67
837,27	63892,63
837,45	63877,17
837,62	63954,79
837,79	63941,68
837,97	63805,49
838,14	63922,12
838,32	63911,06
838,49	63927,14
838,66	63839,49
838,84	63824,13
839,01	63801,60
839,18	63864,47
839,36	63941,27
839,53	63936,66
839,70	63822,49
839,88	63883,62
840,05	63811,63
840,23	63896,22
840,40	63926,83
840,57	63880,55
840,75	63898,67
840,92	63768,63
841,09	63837,34
841,27	63825,15
841,44	63873,18
841,61	63808,36
841,79	63867,65
841,96	63894,07
842,13	63984,69
842,31	63893,04
842,48	63903,38
842,65	63947,82
842,83	63891,40
843,00	63872,97
843,17	63927,86
843,35	63811,74
843,52	63924,58
843,69	63840,61
843,86	63944,45
844,04	63920,07
844,21	63904,30
844,38	63846,24
844,56	63866,72
844,73	63843,48
844,90	63835,49
845,08	63872,25
845,25	63902,15
845,42	63824,74
845,60	63860,68
845,77	63905,53
845,94	63932,46
846,11	63885,77
846,29	63790,44
846,46	63903,59
846,63	63906,97
846,81	63810,20
846,98	63890,38
847,15	63909,94
847,32	63872,87
847,50	63942,70
847,67	63902,26
847,84	63875,53
848,01	63827,20
848,19	63877,99
848,36	63882,49
848,53	63950,18
848,71	46025,84
848,88	63629,16
849,05	1145,63
849,22	1216,49
849,40	1047,74
849,57	1061,05
849,74	1061,16
849,91	1112,97
850,09	1206,87
850,26	1428,05
850,43	1976,60
850,60	3108,61
850,78	5217,61
850,95	8271,34
851,12	12102,98
851,29	15835,10
851,47	18811,41
851,64	20556,38
851,81	21386,94
851,98	20662,67
852,15	18954,05
852,33	16677,43
852,50	14457,12
852,67	12564,08
852,84	11203,11
853,02	9950,57
853,19	8964,57
853,36	8046,78
853,53	7276,23
853,70	6562,72
853,88	5953,55
854,05	5312,12
854,22	4690,67
854,39	4007,36
854,56	3304,50
854,74	2657,03
854,91	2166,96
855,08	1712,41
855,25	1358,42
855,42	1183,93
855,60	1054,40
855,77	943,40
855,94	871,10
856,11	850,32
856,28	799,83
856,46	779,76
856,63	758,26
856,80	746,18
856,97	731,94
857,14	721,81
857,31	700,71
857,49	697,33
857,66	719,76
857,83	680,03
858,00	687,91
858,17	673,58
858,34	642,45
858,52	627,80
858,69	664,36
858,86	645,62
859,03	630,77
859,20	616,75
859,37	675,93
859,55	615,01
859,72	644,19
859,89	645,93
860,06	668,35
860,23	651,25
860,40	640,30
860,57	642,96
860,75	641,22
860,92	636,92
861,09	625,76
861,26	613,06
861,43	611,11
861,60	611,22
861,77	597,60
861,95	579,06
862,12	579,17
862,29	565,03
862,46	518,03
862,63	546,71
862,80	531,65
862,97	538,92
863,14	531,96
863,31	517,11
863,49	532,98
863,66	510,15
863,83	506,67
864,00	515,37
864,17	526,64
864,34	541,28
864,51	537,08
864,68	555,20
864,85	591,15
865,02	662,01
865,20	759,49
865,37	965,41
865,54	1349,00
865,71	1778,46
865,88	2289,32
866,05	2767,42
866,22	3160,73
866,39	3389,29
866,56	3486,36
866,73	3351,19
866,90	3193,09
867,07	2899,82
867,25	2638,91
867,42	2391,72
867,59	2218,56
867,76	2045,20
867,93	1905,84
868,10	1742,00
868,27	1603,87
868,44	1492,56
868,61	1374,39
868,78	1278,85
868,95	1176,25
869,12	1091,26
869,29	939,10
869,46	777,31
869,63	719,25
869,80	632,21
869,97	560,73
870,14	514,65
870,32	510,25
870,49	473,80
870,66	479,22
870,83	474,10
871,00	444,31
871,17	448,81
871,34	463,35
871,51	431,10
871,68	406,93
871,85	417,89
872,02	454,24
872,19	443,18
872,36	433,76
872,53	453,83
872,70	435,09
872,87	438,16
873,04	424,24
873,21	463,56
873,38	452,50
873,55	441,23
873,72	465,91
873,89	420,35
874,06	436,63
874,23	466,42
874,40	442,36
874,57	451,58
874,74	424,44
874,91	431,81
875,08	446,05
875,25	454,44
875,42	431,81
875,59	428,13
875,76	437,24
875,93	413,28
876,10	415,02
876,27	431,10
876,44	423,72
876,61	398,43
876,78	424,75
876,95	399,76
877,12	414,10
877,29	401,20
877,46	397,92
877,62	396,59
877,79	376,42
877,96	384,30
878,13	386,66
878,30	375,50
878,47	383,17
878,64	367,20
878,81	402,22
878,98	369,04
879,15	391,88
879,32	381,23
879,49	380,61
879,66	383,69
879,83	367,82
880,00	390,14
880,17	354,81
880,34	400,48
880,51	364,54
880,67	366,07
880,84	385,43
881,01	364,95
881,18	391,47
881,35	358,09
881,52	358,39
881,69	359,73
881,86	363,21
882,03	353,79
882,20	375,60
882,37	337,10
882,54	359,83
882,70	375,80
882,87	356,65
883,04	331,05
883,21	334,54
883,38	351,12
883,55	362,39
883,72	364,13
883,89	336,79
884,06	340,78
884,23	362,59
884,39	353,79
884,56	355,02
884,73	343,85
884,90	368,63
885,07	374,68
885,24	363,10
885,41	345,39
885,58	344,88
885,74	352,35
885,91	345,80
886,08	342,52
886,25	368,94
886,42	348,56
886,59	322,15
886,76	336,99
886,93	336,69
887,09	344,88
887,26	326,24
887,43	353,07
887,60	357,78
887,77	330,23
887,94	320,20
888,10	337,30
888,27	328,60
888,44	321,22
888,61	326,04
888,78	331,16
888,95	341,60
889,12	307,91
889,28	326,45
889,45	337,10
889,62	309,86
889,79	342,93
889,96	339,35
890,13	336,79
890,29	346,41
890,46	297,67
890,63	325,01
890,80	324,60
890,97	319,59
891,13	344,06
891,30	328,80
891,47	336,17
891,64	320,10
891,81	325,83
891,98	310,98
892,14	307,81
892,31	326,75
892,48	322,86
892,65	332,39
892,82	313,34
892,98	316,31
893,15	314,98
893,32	313,44
>>>>>End Processed Spectral Data<<<<<
